Date,smooth_close,smooth_troughs,smooth_peaks,close_troughs,close_peaks,ma25,ma50,ma100,ma200,no25,dist_no25,no200,dist_no200,all4,dist_all4,all4_no25,no200_no25,all4_no200,macd_short,macd_long,MACD,MACD_signal,smooth_macd,macd_distance,macd_troughs,macd_peaks,PnL1,PnL2,PnL3,PnL4,PnL5,PnL6,PnL7,PnL8,PnL1_days,PnL2_days,PnL3_days,PnL4_days,PnL5_days,PnL6_days,PnL7_days,PnL8_days,rsi_up_chg,rsi_down_chg,rsi_up_chg_avg,rsi_down_chg_avg,rsi_rs,RSI,smooth_rsi,rsi_troughs,rsi_peaks,rsi_distance,fastK,fastD,fast_troughs,fast_peaks,slowK,slowD,smooth_slowK,smooth_slowD,slow_troughs,slow_peaks,ATR,smooth_atr,atr_troughs,atr_peaks,all4_up,no25_up,no200_up,bull_start,bull,bull_retrace,bull_end,bear_start,bear,bear_recovery,bear_end,smooth_p1,smooth_p2,smooth_p3,smooth_t1,smooth_t2,smooth_t3,smooth_p1_date,smooth_p2_date,smooth_p3_date,smooth_t1_date,smooth_t2_date,smooth_t3_date,smooth_diff_0,smooth_diff_1,smooth_diff_2,smooth_diff_3,smooth_diff_4,smooth_diff_5,smooth_day_0,smooth_day_1,smooth_day_2,smooth_day_3,smooth_day_4,smooth_day_5,smooth_angle_0,smooth_angle_1,smooth_angle_2,smooth_angle_3,smooth_angle_4,smooth_angle_5,close_p1,close_p2,close_p3,close_t1,close_t2,close_t3,close_p1_date,close_p2_date,close_p3_date,close_t1_date,close_t2_date,close_t3_date,atr_p1,atr_p2,atr_p3,atr_t1,atr_t2,atr_t3,atr_p1_date,atr_p2_date,atr_p3_date,atr_t1_date,atr_t2_date,atr_t3_date,v3,v2,v1,v3p,v2p,v1p,macd_p1,macd_p2,macd_p3,macd_t1,macd_t2,macd_t3,macd_p1_signal,macd_p2_signal,macd_p3_signal,macd_t1_signal,macd_t2_signal,macd_t3_signal,slow_p1,slow_p2,slow_p3,slow_t1,slow_t2,slow_t3,fast_p1,fast_p2,fast_p3,fast_t1,fast_t2,fast_t3,rsi_p1,rsi_p2,rsi_p3,rsi_t1,rsi_t2,rsi_t3,macd_p1_date,macd_p2_date,macd_p3_date,macd_t1_date,macd_t2_date,macd_t3_date,macd_p1_days,macd_p2_days,macd_p3_days,macd_t1_days,macd_t2_days,macd_t3_days,slow_p1_date,slow_p2_date,slow_p3_date,slow_t1_date,slow_t2_date,slow_t3_date,fast_p1_date,fast_p2_date,fast_p3_date,fast_t1_date,fast_t2_date,fast_t3_date,rsi_p1_date,rsi_p2_date,rsi_p3_date,rsi_t1_date,rsi_t2_date,rsi_t3_date,minsmcp,maxsmcp,minsmct,maxsmct,mincp,maxcp,minct,maxct,minmp,maxmp,minmt,maxmt,minsp,maxsp,minst,maxst,minfp,maxfp,minft,maxft,minrp,maxrp,minrt,maxrt,minap,maxap,minat,maxat,mp_positives,mt_positives,vol_n2p,vol_p2p,vol_p2n,vol_n2n,vol_hist5,vol_hist4,vol_hist3,vol_hist2,vol_hist1,life5,life4,life3,life2,life1,buy_call,sell_call
2004-04-23,0.4436,,,,,0.4469,0.4469,0.4469,0.4469,0.0,0.0,0.0,0.0,0.0,0.0,0.0,0.0,0.0,0.4469,0.4469,0.0,0.0,0.0,0.0,,,-15.91,0.27,-0.27,0.54,-1.87,0.54,-1.89,6.34,38.0,2.0,6.0,6.0,12.0,10.0,13.0,15.0,,,,,,,,,,,,,,,,,,,,,0.0552,0.0552,,,1,0,0,,,0.15,,,,,,0.0,0.0,0.0,0.0,0.0,0.0,1999-01-01,1999-01-01,1999-01-01,1999-01-01,1999-01-01,1999-01-01,,,,,,,0.0,0.0,0.0,0.0,0.0,0.0,0.0,0.0,0.0,0.0,0.0,0.0,0.0,0.0,0.0,0.0,0.0,0.0,1999-01-01,1999-01-01,1999-01-01,1999-01-01,1999-01-01,1999-01-01,0.0,0.0,0.0,100.0,100.0,100.0,1999-01-01,1999-01-01,1999-01-01,1999-01-01,1999-01-01,1999-01-01,0.0,0.0,15733000.0,0.0,0.0,1573300000.0,0.0,0.0,0.0,100.0,100.0,100.0,0.0,0.0,0.0,100.0,100.0,100.0,0.0,0.0,0.0,100.0,100.0,100.0,0.0,0.0,0.0,100.0,100.0,100.0,0.0,0.0,0.0,100.0,100.0,100.0,1999-01-01,1999-01-01,1999-01-01,1999-01-01,1999-01-01,1999-01-01,0,0,0,0,0,0,1999-01-01,1999-01-01,1999-01-01,1999-01-01,1999-01-01,1999-01-01,1999-01-01,1999-01-01,1999-01-01,1999-01-01,1999-01-01,1999-01-01,1999-01-01,1999-01-01,1999-01-01,1999-01-01,1999-01-01,1999-01-01,0,0,0,0,0,0,0,0,0,0,0,0,0,0,0,0,0,0,0,0,0,0,0,0,0,0,0,0,1,1,,,,,,,,,,Life.Empty,Life.Empty,Life.Empty,Life.Empty,Life.BullRetrace,,
2004-04-26,0.43706,,,,,0.44593,0.44641,0.44665,0.44677,-0.00037,-0.00092,-0.00072,-0.0013,-0.00084,-0.00166,-0.00073,-0.00038,-0.00036,0.44496,0.44597,-0.00101,-0.0002,-0.00078,-0.0008,,,-14.66,0.27,-0.27,0.54,-1.87,0.54,-1.89,6.34,37.0,2.0,6.0,6.0,12.0,10.0,13.0,15.0,-0.0,-0.0126,,,,,,,,,,,,,,,,,,,0.05323,0.05348,,,0,0,0,,,,,,-0.15,,,0.0,0.0,0.0,0.0,0.0,0.0,1999-01-01,1999-01-01,1999-01-01,1999-01-01,1999-01-01,1999-01-01,,,,,,,0.0,0.0,0.0,0.0,0.0,0.0,0.0,0.0,0.0,0.0,0.0,0.0,0.0,0.0,0.0,0.0,0.0,0.0,1999-01-01,1999-01-01,1999-01-01,1999-01-01,1999-01-01,1999-01-01,0.0,0.0,0.0,100.0,100.0,100.0,1999-01-01,1999-01-01,1999-01-01,1999-01-01,1999-01-01,1999-01-01,0.0,15733000.0,2954900.0,0.0,1573300000.0,18.78,0.0,0.0,0.0,100.0,100.0,100.0,0.0,0.0,0.0,100.0,100.0,100.0,0.0,0.0,0.0,100.0,100.0,100.0,0.0,0.0,0.0,100.0,100.0,100.0,0.0,0.0,0.0,100.0,100.0,100.0,1999-01-01,1999-01-01,1999-01-01,1999-01-01,1999-01-01,1999-01-01,0,0,0,0,0,0,1999-01-01,1999-01-01,1999-01-01,1999-01-01,1999-01-01,1999-01-01,1999-01-01,1999-01-01,1999-01-01,1999-01-01,1999-01-01,1999-01-01,1999-01-01,1999-01-01,1999-01-01,1999-01-01,1999-01-01,1999-01-01,0,0,0,0,0,0,0,0,0,0,0,0,0,0,0,0,0,0,0,0,0,0,0,0,0,0,0,0,1,1,,,,,,,,,,Life.Empty,Life.Empty,Life.Empty,Life.BullRetrace,Life.Bear,,
2004-04-27,0.43067,,,,,0.44504,0.44593,0.44641,0.44665,-0.00072,-0.00184,-0.00137,-0.00259,-0.00161,-0.00331,-0.00147,-0.00075,-0.00071,0.44332,0.4451,-0.00178,-0.00052,-0.00155,-0.00126,,,-13.39,0.27,-0.27,0.54,-1.87,0.54,-1.89,6.34,36.0,2.0,6.0,6.0,12.0,10.0,13.0,15.0,0.0,0.0,,,,,,,,,,,,,,,,,,,0.0505,0.05176,,,0,0,0,,,,,,-0.15,,,0.0,0.0,0.0,0.0,0.0,0.0,1999-01-01,1999-01-01,1999-01-01,1999-01-01,1999-01-01,1999-01-01,,,,,,,0.0,0.0,0.0,0.0,0.0,0.0,0.0,0.0,0.0,0.0,0.0,0.0,0.0,0.0,0.0,0.0,0.0,0.0,1999-01-01,1999-01-01,1999-01-01,1999-01-01,1999-01-01,1999-01-01,0.0,0.0,0.0,100.0,100.0,100.0,1999-01-01,1999-01-01,1999-01-01,1999-01-01,1999-01-01,1999-01-01,15733000.0,2954900.0,1006800.0,1573300000.0,18.78,5.39,0.0,0.0,0.0,100.0,100.0,100.0,0.0,0.0,0.0,100.0,100.0,100.0,0.0,0.0,0.0,100.0,100.0,100.0,0.0,0.0,0.0,100.0,100.0,100.0,0.0,0.0,0.0,100.0,100.0,100.0,1999-01-01,1999-01-01,1999-01-01,1999-01-01,1999-01-01,1999-01-01,0,0,0,0,0,0,1999-01-01,1999-01-01,1999-01-01,1999-01-01,1999-01-01,1999-01-01,1999-01-01,1999-01-01,1999-01-01,1999-01-01,1999-01-01,1999-01-01,1999-01-01,1999-01-01,1999-01-01,1999-01-01,1999-01-01,1999-01-01,0,0,0,0,0,0,0,0,0,0,0,0,0,0,0,0,0,0,0,0,0,0,0,0,0,0,0,0,1,1,,,,,,,,,,Life.Empty,Life.Empty,Life.Empty,Life.BullRetrace,Life.Bear,,
2004-04-28,0.42452,,,,,0.44383,0.44528,0.44607,0.44648,-0.0012,-0.00276,-0.00224,-0.00389,-0.00265,-0.00496,-0.00219,-0.00112,-0.00107,0.44116,0.44393,-0.00277,-0.00097,-0.00231,-0.0018,,,-12.14,0.27,-0.27,0.54,-1.87,0.54,-1.89,6.34,35.0,2.0,6.0,6.0,12.0,10.0,13.0,15.0,-0.0,-0.005,,,,,,,,,,,,,,,,,,,0.04778,0.05005,,,0,0,0,,,,,,-0.15,,,0.0,0.0,0.0,0.0,0.0,0.0,1999-01-01,1999-01-01,1999-01-01,1999-01-01,1999-01-01,1999-01-01,,,,,,,0.0,0.0,0.0,0.0,0.0,0.0,0.0,0.0,0.0,0.0,0.0,0.0,0.0,0.0,0.0,0.0,0.0,0.0,1999-01-01,1999-01-01,1999-01-01,1999-01-01,1999-01-01,1999-01-01,0.0,0.0,0.0,100.0,100.0,100.0,1999-01-01,1999-01-01,1999-01-01,1999-01-01,1999-01-01,1999-01-01,2954900.0,1006800.0,569900.0,18.78,5.39,-76.99,0.0,0.0,0.0,100.0,100.0,100.0,0.0,0.0,0.0,100.0,100.0,100.0,0.0,0.0,0.0,100.0,100.0,100.0,0.0,0.0,0.0,100.0,100.0,100.0,0.0,0.0,0.0,100.0,100.0,100.0,1999-01-01,1999-01-01,1999-01-01,1999-01-01,1999-01-01,1999-01-01,0,0,0,0,0,0,1999-01-01,1999-01-01,1999-01-01,1999-01-01,1999-01-01,1999-01-01,1999-01-01,1999-01-01,1999-01-01,1999-01-01,1999-01-01,1999-01-01,1999-01-01,1999-01-01,1999-01-01,1999-01-01,1999-01-01,1999-01-01,0,0,0,0,0,0,0,0,0,0,0,0,0,0,0,0,0,0,0,0,0,0,0,0,0,0,0,0,1,1,,,-569900.0,,,,,,p2n,Life.Empty,Life.Empty,Life.Empty,Life.BullRetrace,Life.Bear,,
2004-04-29,0.41875,,,,,0.44174,0.44416,0.44549,0.44618,-0.00202,-0.00368,-0.00375,-0.00517,-0.00444,-0.0066,-0.00291,-0.00149,-0.00143,0.4374,0.44191,-0.00451,-0.00168,-0.00306,-0.00284,,,-10.92,0.27,-0.27,0.54,-1.87,0.54,-1.89,6.34,34.0,2.0,6.0,6.0,12.0,10.0,13.0,15.0,-0.0,-0.0126,,,,,,,,,,,,,,,,,,,0.04581,0.04836,,,0,0,0,,,,,,-0.15,,,0.0,0.0,0.0,0.0,0.0,0.0,1999-01-01,1999-01-01,1999-01-01,1999-01-01,1999-01-01,1999-01-01,,,,,,,0.0,0.0,0.0,0.0,0.0,0.0,0.0,0.0,0.0,0.0,0.0,0.0,0.0,0.0,0.0,0.0,0.0,0.0,1999-01-01,1999-01-01,1999-01-01,1999-01-01,1999-01-01,1999-01-01,0.0,0.0,0.0,100.0,100.0,100.0,1999-01-01,1999-01-01,1999-01-01,1999-01-01,1999-01-01,1999-01-01,1006800.0,569900.0,3238200.0,5.39,-76.99,6.25,0.0,0.0,0.0,100.0,100.0,100.0,0.0,0.0,0.0,100.0,100.0,100.0,0.0,0.0,0.0,100.0,100.0,100.0,0.0,0.0,0.0,100.0,100.0,100.0,0.0,0.0,0.0,100.0,100.0,100.0,1999-01-01,1999-01-01,1999-01-01,1999-01-01,1999-01-01,1999-01-01,0,0,0,0,0,0,1999-01-01,1999-01-01,1999-01-01,1999-01-01,1999-01-01,1999-01-01,1999-01-01,1999-01-01,1999-01-01,1999-01-01,1999-01-01,1999-01-01,1999-01-01,1999-01-01,1999-01-01,1999-01-01,1999-01-01,1999-01-01,0,0,0,0,0,0,0,0,0,0,0,0,0,0,0,0,0,0,0,0,0,0,0,0,0,0,0,0,1,1,-3238200.0,,,,,,,p2n,n2p,Life.Empty,Life.Empty,Life.Empty,Life.BullRetrace,Life.Bear,,
2004-04-30,0.41352,,,,,0.43866,0.44249,0.44462,0.44574,-0.00325,-0.0046,-0.00596,-0.00644,-0.00708,-0.00823,-0.00362,-0.00184,-0.00179,0.43191,0.43894,-0.00703,-0.00275,-0.00379,-0.00428,,,-9.8,0.27,-0.27,0.54,-1.87,0.54,-1.89,6.34,33.0,2.0,6.0,6.0,12.0,10.0,13.0,15.0,-0.0,-0.015,,,,,,,,,,,,,,,,,,,0.04361,0.04667,,,0,0,0,,,,,,-0.15,,,0.0,0.0,0.0,0.0,0.0,0.0,1999-01-01,1999-01-01,1999-01-01,1999-01-01,1999-01-01,1999-01-01,,,,,,,0.0,0.0,0.0,0.0,0.0,0.0,0.0,0.0,0.0,0.0,0.0,0.0,0.0,0.0,0.0,0.0,0.0,0.0,1999-01-01,1999-01-01,1999-01-01,1999-01-01,1999-01-01,1999-01-01,0.0,0.0,0.0,100.0,100.0,100.0,1999-01-01,1999-01-01,1999-01-01,1999-01-01,1999-01-01,1999-01-01,569900.0,3238200.0,1242900.0,-76.99,6.25,4.9,0.0,0.0,0.0,100.0,100.0,100.0,0.0,0.0,0.0,100.0,100.0,100.0,0.0,0.0,0.0,100.0,100.0,100.0,0.0,0.0,0.0,100.0,100.0,100.0,0.0,0.0,0.0,100.0,100.0,100.0,1999-01-01,1999-01-01,1999-01-01,1999-01-01,1999-01-01,1999-01-01,0,0,0,0,0,0,1999-01-01,1999-01-01,1999-01-01,1999-01-01,1999-01-01,1999-01-01,1999-01-01,1999-01-01,1999-01-01,1999-01-01,1999-01-01,1999-01-01,1999-01-01,1999-01-01,1999-01-01,1999-01-01,1999-01-01,1999-01-01,0,0,0,0,0,0,0,0,0,0,0,0,0,0,0,0,0,0,0,0,0,0,0,0,0,0,0,0,1,1,,,,,,,p2n,n2p,,Life.Empty,Life.Empty,Life.Empty,Life.BullRetrace,Life.Bear,,
2004-05-05,0.409,,,0.402,,0.43582,0.44089,0.44377,0.4453,-0.00441,-0.00552,-0.00795,-0.0077,-0.00948,-0.00984,-0.00433,-0.00218,-0.00215,0.42726,0.43618,-0.00892,-0.00398,-0.0045,-0.00494,,,-8.8,0.27,-0.27,0.54,-1.87,0.54,-1.89,6.34,30.0,2.0,6.0,6.0,12.0,10.0,13.0,15.0,0.0,0.0,,,,,,,,,,,,,4.64725,,,,,,0.04138,0.04501,,,0,0,0,,,,,,-0.15,,,0.0,0.0,0.0,0.0,0.0,0.0,1999-01-01,1999-01-01,1999-01-01,1999-01-01,1999-01-01,1999-01-01,,,,,,,0.0,0.0,0.0,0.0,0.0,0.0,0.0,0.0,0.0,0.0,0.0,0.0,0.0,0.0,0.0,0.402,0.0,0.0,1999-01-01,1999-01-01,1999-01-01,2004-05-05,1999-01-01,1999-01-01,0.0,0.0,0.0,100.0,100.0,100.0,1999-01-01,1999-01-01,1999-01-01,1999-01-01,1999-01-01,1999-01-01,3238200.0,1242900.0,694300.0,6.25,4.9,2.46,0.0,0.0,0.0,100.0,100.0,100.0,0.0,0.0,0.0,100.0,100.0,100.0,0.0,0.0,0.0,100.0,100.0,100.0,0.0,0.0,0.0,100.0,100.0,100.0,0.0,0.0,0.0,100.0,100.0,100.0,1999-01-01,1999-01-01,1999-01-01,1999-01-01,1999-01-01,1999-01-01,0,0,0,0,0,0,1999-01-01,1999-01-01,1999-01-01,1999-01-01,1999-01-01,1999-01-01,1999-01-01,1999-01-01,1999-01-01,1999-01-01,1999-01-01,1999-01-01,1999-01-01,1999-01-01,1999-01-01,1999-01-01,1999-01-01,1999-01-01,0,0,0,0,0,0,0,1,0,0,0,0,0,0,0,0,0,0,0,0,0,0,0,0,0,0,0,0,1,1,,,,,,p2n,n2p,,,Life.Empty,Life.Empty,Life.Empty,Life.BullRetrace,Life.Bear,,
2004-05-06,0.40517,,,,0.404,0.43338,0.43945,0.44299,0.44489,-0.00544,-0.00643,-0.0096,-0.00894,-0.01151,-0.01145,-0.00501,-0.00251,-0.00251,0.42371,0.43381,-0.0101,-0.0052,-0.00519,-0.00489,,,-7.94,0.27,-0.27,0.54,-1.87,0.54,-1.89,6.34,29.0,2.0,6.0,6.0,12.0,10.0,13.0,15.0,0.0025,0.0,,,,,,,,,,,,,7.5609,,,,,,0.03897,0.04336,,,0,0,0,,,,,,-0.15,,,0.0,0.0,0.0,0.0,0.0,0.0,1999-01-01,1999-01-01,1999-01-01,1999-01-01,1999-01-01,1999-01-01,,,,,,,0.0,0.0,0.0,0.0,0.0,0.0,0.0,0.0,0.0,0.0,0.0,0.0,0.404,0.0,0.0,0.402,0.0,0.0,2004-05-06,1999-01-01,1999-01-01,2004-05-05,1999-01-01,1999-01-01,0.0,0.0,0.0,100.0,100.0,100.0,1999-01-01,1999-01-01,1999-01-01,1999-01-01,1999-01-01,1999-01-01,1242900.0,694300.0,674300.0,4.9,2.46,-49.54,0.0,0.0,0.0,100.0,100.0,100.0,0.0,0.0,0.0,100.0,100.0,100.0,0.0,0.0,0.0,100.0,100.0,100.0,0.0,0.0,0.0,100.0,100.0,100.0,0.0,0.0,0.0,100.0,100.0,100.0,1999-01-01,1999-01-01,1999-01-01,1999-01-01,1999-01-01,1999-01-01,0,0,0,0,0,0,1999-01-01,1999-01-01,1999-01-01,1999-01-01,1999-01-01,1999-01-01,1999-01-01,1999-01-01,1999-01-01,1999-01-01,1999-01-01,1999-01-01,1999-01-01,1999-01-01,1999-01-01,1999-01-01,1999-01-01,1999-01-01,0,0,0,0,0,1,0,1,0,0,0,0,0,0,0,0,0,0,0,0,0,0,0,0,0,0,0,0,1,1,,,674300.0,,p2n,n2p,,,p2n,Life.Empty,Life.Empty,Life.Empty,Life.BullRetrace,Life.Bear,,
2004-05-07,0.40193,,,,,0.43055,0.43777,0.44207,0.44441,-0.00664,-0.00734,-0.01151,-0.01016,-0.01386,-0.01303,-0.00569,-0.00282,-0.00287,0.41954,0.43105,-0.01151,-0.00647,-0.00585,-0.00505,,,-7.2,0.27,-0.27,0.54,-1.87,0.54,-1.89,6.34,28.0,2.0,6.0,6.0,12.0,10.0,13.0,15.0,-0.0,-0.0076,,,,,,,,,,,,,7.5609,6.58968,,,,,0.03673,0.04175,,,0,0,0,,,,,,-0.15,,,0.0,0.0,0.0,0.0,0.0,0.0,1999-01-01,1999-01-01,1999-01-01,1999-01-01,1999-01-01,1999-01-01,,,,,,,0.0,0.0,0.0,0.0,0.0,0.0,0.0,0.0,0.0,0.0,0.0,0.0,0.404,0.0,0.0,0.402,0.0,0.0,2004-05-06,1999-01-01,1999-01-01,2004-05-05,1999-01-01,1999-01-01,0.0,0.0,0.0,100.0,100.0,100.0,1999-01-01,1999-01-01,1999-01-01,1999-01-01,1999-01-01,1999-01-01,694300.0,674300.0,1044700.0,2.46,-49.54,-7.59,0.0,0.0,0.0,100.0,100.0,100.0,0.0,0.0,0.0,100.0,100.0,100.0,0.0,0.0,0.0,100.0,100.0,100.0,0.0,0.0,0.0,100.0,100.0,100.0,0.0,0.0,0.0,100.0,100.0,100.0,1999-01-01,1999-01-01,1999-01-01,1999-01-01,1999-01-01,1999-01-01,0,0,0,0,0,0,1999-01-01,1999-01-01,1999-01-01,1999-01-01,1999-01-01,1999-01-01,1999-01-01,1999-01-01,1999-01-01,1999-01-01,1999-01-01,1999-01-01,1999-01-01,1999-01-01,1999-01-01,1999-01-01,1999-01-01,1999-01-01,0,0,0,0,0,1,0,1,0,0,0,0,0,0,0,0,0,0,0,0,0,0,0,0,0,0,0,0,1,1,,,,,n2p,,,p2n,,Life.Empty,Life.Empty,Life.Empty,Life.BullRetrace,Life.Bear,,
2004-05-10,0.39912,,,0.397,,0.42794,0.43616,0.44117,0.44394,-0.00778,-0.00825,-0.01322,-0.01137,-0.01599,-0.01459,-0.00634,-0.00311,-0.00323,0.41601,0.4285,-0.01249,-0.00767,-0.00648,-0.00482,,,-6.54,0.27,-0.27,0.54,-1.87,0.54,-1.89,6.34,27.0,2.0,6.0,6.0,12.0,10.0,13.0,15.0,0.0,0.0,,,,,,,,,,,,,19.44747,11.52309,,,,,0.035,0.04016,,,0,0,0,,,,,,-0.15,,,0.0,0.0,0.0,0.0,0.0,0.0,1999-01-01,1999-01-01,1999-01-01,1999-01-01,1999-01-01,1999-01-01,,,,,,,0.0,0.0,0.0,0.0,0.0,0.0,0.0,0.0,0.0,0.0,0.0,0.0,0.404,0.0,0.0,0.397,0.402,0.0,2004-05-06,1999-01-01,1999-01-01,2004-05-10,2004-05-05,1999-01-01,0.0,0.0,0.0,100.0,100.0,100.0,1999-01-01,1999-01-01,1999-01-01,1999-01-01,1999-01-01,1999-01-01,674300.0,1044700.0,444600.0,-49.54,-7.59,-10.35,0.0,0.0,0.0,100.0,100.0,100.0,0.0,0.0,0.0,100.0,100.0,100.0,0.0,0.0,0.0,100.0,100.0,100.0,0.0,0.0,0.0,100.0,100.0,100.0,0.0,0.0,0.0,100.0,100.0,100.0,1999-01-01,1999-01-01,1999-01-01,1999-01-01,1999-01-01,1999-01-01,0,0,0,0,0,0,1999-01-01,1999-01-01,1999-01-01,1999-01-01,1999-01-01,1999-01-01,1999-01-01,1999-01-01,1999-01-01,1999-01-01,1999-01-01,1999-01-01,1999-01-01,1999-01-01,1999-01-01,1999-01-01,1999-01-01,1999-01-01,0,0,0,0,0,1,0,0,0,0,0,0,0,0,0,0,0,0,0,0,0,0,0,0,0,0,0,0,1,1,,,,,,,p2n,,,Life.Empty,Life.Empty,Life.Empty,Life.BullRetrace,Life.Bear,,
2004-05-11,0.39659,,,,,0.42573,0.43471,0.44034,0.44349,-0.00878,-0.00916,-0.0146,-0.01254,-0.01776,-0.01614,-0.00698,-0.00339,-0.00359,0.41343,0.42633,-0.0129,-0.00872,-0.00707,-0.00419,,,-5.95,0.27,-0.27,0.54,-1.87,0.54,-1.89,6.34,26.0,2.0,6.0,6.0,12.0,10.0,13.0,15.0,0.0026,0.0,,,,,,,,,,,,,32.07946,19.69594,,,,,0.0334,0.0386,,,0,0,0,,,,,,-0.15,,,0.0,0.0,0.0,0.0,0.0,0.0,1999-01-01,1999-01-01,1999-01-01,1999-01-01,1999-01-01,1999-01-01,,,,,,,0.0,0.0,0.0,0.0,0.0,0.0,0.0,0.0,0.0,0.0,0.0,0.0,0.404,0.0,0.0,0.397,0.402,0.0,2004-05-06,1999-01-01,1999-01-01,2004-05-10,2004-05-05,1999-01-01,0.0,0.0,0.0,100.0,100.0,100.0,1999-01-01,1999-01-01,1999-01-01,1999-01-01,1999-01-01,1999-01-01,1044700.0,444600.0,396000.0,-7.59,-10.35,-12.86,0.0,0.0,0.0,100.0,100.0,100.0,0.0,0.0,0.0,100.0,100.0,100.0,0.0,0.0,0.0,100.0,100.0,100.0,0.0,0.0,0.0,100.0,100.0,100.0,0.0,0.0,0.0,100.0,100.0,100.0,1999-01-01,1999-01-01,1999-01-01,1999-01-01,1999-01-01,1999-01-01,0,0,0,0,0,0,1999-01-01,1999-01-01,1999-01-01,1999-01-01,1999-01-01,1999-01-01,1999-01-01,1999-01-01,1999-01-01,1999-01-01,1999-01-01,1999-01-01,1999-01-01,1999-01-01,1999-01-01,1999-01-01,1999-01-01,1999-01-01,0,0,0,0,0,1,0,0,0,0,0,0,0,0,0,0,0,0,0,0,0,0,0,0,0,0,0,0,1,1,,,,,,p2n,,,,Life.Empty,Life.Empty,Life.Empty,Life.BullRetrace,Life.Bear,,
2004-05-12,0.39421,,,,0.402,0.42388,0.43342,0.43957,0.44307,-0.00966,-0.01006,-0.01569,-0.0137,-0.01919,-0.01765,-0.00759,-0.00364,-0.00396,0.41162,0.42451,-0.01288,-0.00955,-0.00762,-0.00333,,,-5.38,0.27,-0.27,0.54,-1.87,0.54,-1.89,6.34,25.0,2.0,6.0,6.0,12.0,10.0,13.0,15.0,0.0025,0.0,,,,,,,,,,,,,61.26686,37.59793,,,,,0.03156,0.03707,,,0,0,0,,,,,,-0.15,,,0.0,0.0,0.0,0.0,0.0,0.0,1999-01-01,1999-01-01,1999-01-01,1999-01-01,1999-01-01,1999-01-01,,,,,,,0.0,0.0,0.0,0.0,0.0,0.0,0.0,0.0,0.0,0.0,0.0,0.0,0.402,0.404,0.0,0.397,0.402,0.0,2004-05-12,2004-05-06,1999-01-01,2004-05-10,2004-05-05,1999-01-01,0.0,0.0,0.0,100.0,100.0,100.0,1999-01-01,1999-01-01,1999-01-01,1999-01-01,1999-01-01,1999-01-01,444600.0,396000.0,244200.0,-10.35,-12.86,-42.46,0.0,0.0,0.0,100.0,100.0,100.0,0.0,0.0,0.0,100.0,100.0,100.0,0.0,0.0,0.0,100.0,100.0,100.0,0.0,0.0,0.0,100.0,100.0,100.0,0.0,0.0,0.0,100.0,100.0,100.0,1999-01-01,1999-01-01,1999-01-01,1999-01-01,1999-01-01,1999-01-01,0,0,0,0,0,0,1999-01-01,1999-01-01,1999-01-01,1999-01-01,1999-01-01,1999-01-01,1999-01-01,1999-01-01,1999-01-01,1999-01-01,1999-01-01,1999-01-01,1999-01-01,1999-01-01,1999-01-01,1999-01-01,1999-01-01,1999-01-01,0,0,0,0,0,0,0,0,0,0,0,0,0,0,0,0,0,0,0,0,0,0,0,0,0,0,0,0,1,1,,,,,p2n,,,,,Life.Empty,Life.Empty,Life.Empty,Life.BullRetrace,Life.Bear,,
2004-05-13,0.39183,,,,,0.42159,0.43187,0.43867,0.44259,-0.01071,-0.01096,-0.01708,-0.01482,-0.021,-0.01915,-0.00819,-0.00387,-0.00432,0.40893,0.42225,-0.01333,-0.01031,-0.00813,-0.00302,,,-4.8,0.27,-0.27,0.54,-1.87,0.54,-1.89,6.34,24.0,2.0,6.0,6.0,12.0,10.0,13.0,15.0,-0.0,-0.0076,,,,,,,,,,,,,68.1538,53.83337,,,,,0.03074,0.03558,,,0,0,0,,,,,,-0.15,,,0.0,0.0,0.0,0.0,0.0,0.0,1999-01-01,1999-01-01,1999-01-01,1999-01-01,1999-01-01,1999-01-01,,,,,,,0.0,0.0,0.0,0.0,0.0,0.0,0.0,0.0,0.0,0.0,0.0,0.0,0.402,0.404,0.0,0.397,0.402,0.0,2004-05-12,2004-05-06,1999-01-01,2004-05-10,2004-05-05,1999-01-01,0.0,0.0,0.0,100.0,100.0,100.0,1999-01-01,1999-01-01,1999-01-01,1999-01-01,1999-01-01,1999-01-01,396000.0,244200.0,574400.0,-12.86,-42.46,11.97,0.0,0.0,0.0,100.0,100.0,100.0,0.0,0.0,0.0,100.0,100.0,100.0,0.0,0.0,0.0,100.0,100.0,100.0,0.0,0.0,0.0,100.0,100.0,100.0,0.0,0.0,0.0,100.0,100.0,100.0,1999-01-01,1999-01-01,1999-01-01,1999-01-01,1999-01-01,1999-01-01,0,0,0,0,0,0,1999-01-01,1999-01-01,1999-01-01,1999-01-01,1999-01-01,1999-01-01,1999-01-01,1999-01-01,1999-01-01,1999-01-01,1999-01-01,1999-01-01,1999-01-01,1999-01-01,1999-01-01,1999-01-01,1999-01-01,1999-01-01,0,0,0,0,0,0,0,0,0,0,0,0,0,0,0,0,0,0,0,0,0,0,0,0,0,0,0,0,1,1,-574400.0,,,,,,,,n2p,Life.Empty,Life.Empty,Life.Empty,Life.BullRetrace,Life.Bear,,
2004-05-14,0.38935,,,,,0.41929,0.43029,0.43774,0.44208,-0.01179,-0.01185,-0.01845,-0.01592,-0.02279,-0.02061,-0.00876,-0.00407,-0.00469,0.40626,0.41998,-0.01372,-0.01099,-0.00861,-0.00273,,,-4.2,0.27,-0.27,0.54,-1.87,0.54,-1.89,6.34,23.0,2.0,6.0,6.0,12.0,10.0,13.0,15.0,-0.0,-0.0025,,,,,,,,,8.29876,,,,66.50083,65.30716,,,,,0.02926,0.03412,,,0,0,0,,,,,,-0.15,,,0.0,0.0,0.0,0.0,0.0,0.0,1999-01-01,1999-01-01,1999-01-01,1999-01-01,1999-01-01,1999-01-01,,,,,,,0.0,0.0,0.0,0.0,0.0,0.0,0.0,0.0,0.0,0.0,0.0,0.0,0.402,0.404,0.0,0.397,0.402,0.0,2004-05-12,2004-05-06,1999-01-01,2004-05-10,2004-05-05,1999-01-01,0.0,0.0,0.0,100.0,100.0,100.0,1999-01-01,1999-01-01,1999-01-01,1999-01-01,1999-01-01,1999-01-01,244200.0,574400.0,126900.0,-42.46,11.97,-22.16,0.0,0.0,0.0,100.0,100.0,100.0,0.0,0.0,0.0,100.0,100.0,100.0,0.0,0.0,0.0,100.0,100.0,100.0,0.0,0.0,0.0,100.0,100.0,100.0,0.0,0.0,0.0,100.0,100.0,100.0,1999-01-01,1999-01-01,1999-01-01,1999-01-01,1999-01-01,1999-01-01,0,0,0,0,0,0,1999-01-01,1999-01-01,1999-01-01,1999-01-01,1999-01-01,1999-01-01,1999-01-01,1999-01-01,1999-01-01,1999-01-01,1999-01-01,1999-01-01,1999-01-01,1999-01-01,1999-01-01,1999-01-01,1999-01-01,1999-01-01,0,0,0,0,0,0,0,0,0,0,0,0,0,0,0,0,0,0,0,0,0,0,0,0,0,0,0,0,1,1,,,,,,,,n2p,,Life.Empty,Life.Empty,Life.Empty,Life.BullRetrace,Life.Bear,,
2004-05-17,0.38686,,,,,0.41658,0.42848,0.43668,0.4415,-0.01302,-0.01273,-0.0201,-0.01698,-0.02492,-0.02204,-0.00931,-0.00425,-0.00506,0.40285,0.41732,-0.01447,-0.01169,-0.00904,-0.00279,,,-3.58,0.27,-0.27,0.54,-1.87,0.54,-1.89,6.34,22.0,2.0,6.0,6.0,12.0,10.0,13.0,15.0,-0.0,-0.0075,0.00054,-0.00503,0.10795,9.74359,,,,,3.32005,,3.32,,41.45937,58.70467,,,,,0.02788,0.03271,,,0,0,0,,,,,,-0.15,,,0.0,0.0,0.0,0.0,0.0,0.0,1999-01-01,1999-01-01,1999-01-01,1999-01-01,1999-01-01,1999-01-01,,,,,,,0.0,0.0,0.0,0.0,0.0,0.0,0.0,0.0,0.0,0.0,0.0,0.0,0.402,0.404,0.0,0.397,0.402,0.0,2004-05-12,2004-05-06,1999-01-01,2004-05-10,2004-05-05,1999-01-01,0.0,0.0,0.0,100.0,100.0,100.0,1999-01-01,1999-01-01,1999-01-01,1999-01-01,1999-01-01,1999-01-01,574400.0,126900.0,165100.0,11.97,-22.16,-8.37,0.0,0.0,0.0,100.0,100.0,100.0,0.0,0.0,0.0,100.0,100.0,100.0,0.0,0.0,0.0,100.0,100.0,100.0,0.0,0.0,0.0,3.32,100.0,100.0,0.0,0.0,0.0,100.0,100.0,100.0,1999-01-01,1999-01-01,1999-01-01,1999-01-01,1999-01-01,1999-01-01,0,0,0,0,0,0,1999-01-01,1999-01-01,1999-01-01,1999-01-01,1999-01-01,1999-01-01,1999-01-01,1999-01-01,1999-01-01,2004-05-17,1999-01-01,1999-01-01,1999-01-01,1999-01-01,1999-01-01,1999-01-01,1999-01-01,1999-01-01,0,0,0,0,0,0,0,0,0,0,0,0,0,0,0,0,0,0,1,0,0,0,0,0,0,0,0,0,1,1,,,,,,,n2p,,,Life.Empty,Life.Empty,Life.Empty,Life.BullRetrace,Life.Bear,,
2004-05-18,0.38451,,,0.377,,0.4135,0.42645,0.43549,0.44086,-0.01441,-0.01361,-0.02198,-0.01801,-0.02735,-0.02344,-0.00983,-0.0044,-0.00543,0.39881,0.41431,-0.0155,-0.01245,-0.00942,-0.00305,,,-2.99,0.27,-0.27,0.54,-1.87,0.54,-1.89,6.34,21.0,2.0,6.0,6.0,12.0,10.0,13.0,15.0,-0.0,-0.0075,0.00054,-0.00466,0.11639,10.42524,,,,,7.25462,6.29114,,,26.35882,44.77301,,,,,0.02697,0.03134,,,0,0,0,,,,,,-0.15,,,0.0,0.0,0.0,0.0,0.0,0.0,1999-01-01,1999-01-01,1999-01-01,1999-01-01,1999-01-01,1999-01-01,,,,,,,0.0,0.0,0.0,0.0,0.0,0.0,0.0,0.0,0.0,0.0,0.0,0.0,0.402,0.404,0.0,0.377,0.397,0.402,2004-05-12,2004-05-06,1999-01-01,2004-05-18,2004-05-10,2004-05-05,0.0,0.0,0.0,100.0,100.0,100.0,1999-01-01,1999-01-01,1999-01-01,1999-01-01,1999-01-01,1999-01-01,126900.0,165100.0,572200.0,-22.16,-8.37,-0.25,0.0,0.0,0.0,100.0,100.0,100.0,0.0,0.0,0.0,100.0,100.0,100.0,0.0,0.0,0.0,100.0,100.0,100.0,0.0,0.0,0.0,3.32,100.0,100.0,0.0,0.0,0.0,100.0,100.0,100.0,1999-01-01,1999-01-01,1999-01-01,1999-01-01,1999-01-01,1999-01-01,0,0,0,0,0,0,1999-01-01,1999-01-01,1999-01-01,1999-01-01,1999-01-01,1999-01-01,1999-01-01,1999-01-01,1999-01-01,2004-05-17,1999-01-01,1999-01-01,1999-01-01,1999-01-01,1999-01-01,1999-01-01,1999-01-01,1999-01-01,0,0,0,0,0,0,1,0,0,0,0,0,0,0,0,0,0,0,1,0,0,0,0,0,0,0,0,0,1,1,,,,,,n2p,,,,Life.Empty,Life.Empty,Life.Empty,Life.BullRetrace,Life.Bear,,
2004-05-19,0.38239,,,,,0.41086,0.42459,0.43437,0.44024,-0.01565,-0.01448,-0.02351,-0.01901,-0.02939,-0.02481,-0.01032,-0.00452,-0.0058,0.39578,0.4117,-0.01592,-0.01314,-0.00976,-0.00278,,,-2.46,0.27,-0.27,0.54,-1.87,0.54,-1.89,6.34,20.0,2.0,6.0,6.0,12.0,10.0,13.0,15.0,0.0025,0.0,0.00072,-0.00466,0.15467,13.39523,,,,,10.81081,7.1285,,,18.92068,28.91296,,,,,0.02522,0.03001,,,0,0,0,,,,,,-0.15,,,0.0,0.0,0.0,0.0,0.0,0.0,1999-01-01,1999-01-01,1999-01-01,1999-01-01,1999-01-01,1999-01-01,,,,,,,0.0,0.0,0.0,0.0,0.0,0.0,0.0,0.0,0.0,0.0,0.0,0.0,0.402,0.404,0.0,0.377,0.397,0.402,2004-05-12,2004-05-06,1999-01-01,2004-05-18,2004-05-10,2004-05-05,0.0,0.0,0.0,100.0,100.0,100.0,1999-01-01,1999-01-01,1999-01-01,1999-01-01,1999-01-01,1999-01-01,165100.0,572200.0,298600.0,-8.37,-0.25,19.87,0.0,0.0,0.0,100.0,100.0,100.0,0.0,0.0,0.0,100.0,100.0,100.0,0.0,0.0,0.0,100.0,100.0,100.0,0.0,0.0,0.0,3.32,100.0,100.0,0.0,0.0,0.0,100.0,100.0,100.0,1999-01-01,1999-01-01,1999-01-01,1999-01-01,1999-01-01,1999-01-01,0,0,0,0,0,0,1999-01-01,1999-01-01,1999-01-01,1999-01-01,1999-01-01,1999-01-01,1999-01-01,1999-01-01,1999-01-01,2004-05-17,1999-01-01,1999-01-01,1999-01-01,1999-01-01,1999-01-01,1999-01-01,1999-01-01,1999-01-01,0,0,0,0,0,0,1,0,0,0,0,0,0,0,0,0,0,0,1,0,0,0,0,0,0,0,0,0,1,1,,,,,n2p,,,,,Life.Empty,Life.Empty,Life.Empty,Life.BullRetrace,Life.Bear,,
2004-05-20,0.3806,,,,0.382,0.40861,0.42291,0.43332,0.43966,-0.01675,-0.01535,-0.02472,-0.01997,-0.03105,-0.02613,-0.01079,-0.00462,-0.00617,0.3936,0.40947,-0.01587,-0.01369,-0.01005,-0.00218,,,-2.0,0.27,-0.27,0.54,-1.87,0.54,-1.89,6.34,19.0,2.0,6.0,6.0,12.0,10.0,13.0,15.0,0.0025,0.0,0.0009,-0.00431,0.20896,17.28395,,,,,18.26401,12.10982,,18.264,31.52433,25.60128,,,,,0.02378,0.02872,,,0,0,0,,,,,,-0.15,,,0.0,0.0,0.0,0.0,0.0,0.0,1999-01-01,1999-01-01,1999-01-01,1999-01-01,1999-01-01,1999-01-01,,,,,,,0.0,0.0,0.0,0.0,0.0,0.0,0.0,0.0,0.0,0.0,0.0,0.0,0.382,0.402,0.404,0.377,0.397,0.402,2004-05-20,2004-05-12,2004-05-06,2004-05-18,2004-05-10,2004-05-05,0.0,0.0,0.0,100.0,100.0,100.0,1999-01-01,1999-01-01,1999-01-01,1999-01-01,1999-01-01,1999-01-01,572200.0,298600.0,357300.0,-0.25,19.87,18.55,0.0,0.0,0.0,100.0,100.0,100.0,0.0,0.0,0.0,100.0,100.0,100.0,0.0,0.0,0.0,100.0,100.0,100.0,18.264,0.0,0.0,3.32,100.0,100.0,0.0,0.0,0.0,100.0,100.0,100.0,1999-01-01,1999-01-01,1999-01-01,1999-01-01,1999-01-01,1999-01-01,0,0,0,0,0,0,1999-01-01,1999-01-01,1999-01-01,1999-01-01,1999-01-01,1999-01-01,2004-05-20,1999-01-01,1999-01-01,2004-05-17,1999-01-01,1999-01-01,1999-01-01,1999-01-01,1999-01-01,1999-01-01,1999-01-01,1999-01-01,0,0,0,0,1,0,1,0,0,0,0,0,0,0,0,0,0,1,1,0,0,0,0,0,0,0,0,0,1,1,,,,,,,,,,Life.Empty,Life.Empty,Life.Empty,Life.BullRetrace,Life.Bear,,
2004-05-21,0.37925,,,,,0.40634,0.42119,0.43225,0.43906,-0.01787,-0.0162,-0.02591,-0.02089,-0.03272,-0.02742,-0.01122,-0.00469,-0.00654,0.39137,0.40722,-0.01585,-0.01412,-0.0103,-0.00173,,,-1.65,0.27,-0.27,0.54,-1.87,0.54,-1.89,6.34,18.0,2.0,6.0,6.0,12.0,10.0,13.0,15.0,-0.0,-0.0025,0.0009,-0.00359,0.251,20.06369,,,,,17.79859,15.62447,,,38.49884,29.64795,,,,,0.02261,0.02748,,,0,0,0,,,,,,-0.15,,,0.0,0.0,0.0,0.0,0.0,0.0,1999-01-01,1999-01-01,1999-01-01,1999-01-01,1999-01-01,1999-01-01,,,,,,,0.0,0.0,0.0,0.0,0.0,0.0,0.0,0.0,0.0,0.0,0.0,0.0,0.382,0.402,0.404,0.377,0.397,0.402,2004-05-20,2004-05-12,2004-05-06,2004-05-18,2004-05-10,2004-05-05,0.0,0.0,0.0,100.0,100.0,100.0,1999-01-01,1999-01-01,1999-01-01,1999-01-01,1999-01-01,1999-01-01,298600.0,357300.0,291100.0,19.87,18.55,-22.89,0.0,0.0,0.0,100.0,100.0,100.0,0.0,0.0,0.0,100.0,100.0,100.0,0.0,0.0,0.0,100.0,100.0,100.0,18.264,0.0,0.0,3.32,100.0,100.0,0.0,0.0,0.0,100.0,100.0,100.0,1999-01-01,1999-01-01,1999-01-01,1999-01-01,1999-01-01,1999-01-01,0,0,0,0,0,0,1999-01-01,1999-01-01,1999-01-01,1999-01-01,1999-01-01,1999-01-01,2004-05-20,1999-01-01,1999-01-01,2004-05-17,1999-01-01,1999-01-01,1999-01-01,1999-01-01,1999-01-01,1999-01-01,1999-01-01,1999-01-01,0,0,0,0,1,0,1,0,0,0,0,0,0,0,0,0,0,1,1,0,0,0,0,0,0,0,0,0,1,1,,,-291100.0,,,,,,p2n,Life.Empty,Life.Empty,Life.Empty,Life.BullRetrace,Life.Bear,,
2004-05-24,0.37833,,,0.374,,0.40386,0.41934,0.4311,0.43841,-0.01907,-0.01704,-0.02724,-0.02177,-0.03455,-0.02868,-0.01163,-0.00472,-0.00691,0.38871,0.40477,-0.01606,-0.01451,-0.0105,-0.00155,,,-1.41,0.27,-0.27,0.54,-1.87,0.54,-1.89,6.34,17.0,2.0,6.0,6.0,12.0,10.0,13.0,15.0,-0.0,-0.005,0.0009,-0.00287,0.31343,23.86364,,,,,6.46766,14.17676,6.468,,35.09275,35.03864,,,,,0.02136,0.02629,,,0,0,0,,,,,,-0.15,,,0.0,0.0,0.0,0.0,0.0,0.0,1999-01-01,1999-01-01,1999-01-01,1999-01-01,1999-01-01,1999-01-01,,,,,,,0.0,0.0,0.0,0.0,0.0,0.0,0.0,0.0,0.0,0.0,0.0,0.0,0.382,0.402,0.404,0.374,0.377,0.397,2004-05-20,2004-05-12,2004-05-06,2004-05-24,2004-05-18,2004-05-10,0.0,0.0,0.0,100.0,100.0,100.0,1999-01-01,1999-01-01,1999-01-01,1999-01-01,1999-01-01,1999-01-01,357300.0,291100.0,72900.0,18.55,-22.89,-23.83,0.0,0.0,0.0,100.0,100.0,100.0,0.0,0.0,0.0,100.0,100.0,100.0,0.0,0.0,0.0,100.0,100.0,100.0,18.264,0.0,0.0,6.468,3.32,100.0,0.0,0.0,0.0,100.0,100.0,100.0,1999-01-01,1999-01-01,1999-01-01,1999-01-01,1999-01-01,1999-01-01,0,0,0,0,0,0,1999-01-01,1999-01-01,1999-01-01,1999-01-01,1999-01-01,1999-01-01,2004-05-20,1999-01-01,1999-01-01,2004-05-24,2004-05-17,1999-01-01,1999-01-01,1999-01-01,1999-01-01,1999-01-01,1999-01-01,1999-01-01,0,0,0,0,1,0,1,0,0,0,0,0,0,0,0,0,0,1,0,0,0,0,0,0,0,0,0,0,1,1,,,,,,,,p2n,,Life.Empty,Life.Empty,Life.Empty,Life.BullRetrace,Life.Bear,,
2004-05-25,0.37777,,,,0.379,0.40195,0.41776,0.43007,0.43782,-0.02006,-0.01787,-0.02812,-0.02261,-0.03587,-0.02988,-0.01201,-0.00473,-0.00728,0.38723,0.40287,-0.01563,-0.01473,-0.01065,-0.0009,,,-1.26,0.27,-0.27,0.54,-1.87,0.54,-1.89,6.34,16.0,2.0,6.0,6.0,12.0,10.0,13.0,15.0,0.005,0.0,0.00126,-0.00287,0.43781,30.44983,,,,,23.24159,15.83595,,23.242,43.42567,39.00575,,,,,0.02037,0.02514,,,0,0,0,,,,,,-0.15,,,0.0,0.0,0.0,0.0,0.0,0.0,1999-01-01,1999-01-01,1999-01-01,1999-01-01,1999-01-01,1999-01-01,,,,,,,0.0,0.0,0.0,0.0,0.0,0.0,0.0,0.0,0.0,0.0,0.0,0.0,0.379,0.382,0.402,0.374,0.377,0.397,2004-05-25,2004-05-20,2004-05-12,2004-05-24,2004-05-18,2004-05-10,0.0,0.0,0.0,100.0,100.0,100.0,1999-01-01,1999-01-01,1999-01-01,1999-01-01,1999-01-01,1999-01-01,291100.0,72900.0,297200.0,-22.89,-23.83,-8.33,0.0,0.0,0.0,100.0,100.0,100.0,0.0,0.0,0.0,100.0,100.0,100.0,0.0,0.0,0.0,100.0,100.0,100.0,23.242,18.264,0.0,6.468,3.32,100.0,0.0,0.0,0.0,100.0,100.0,100.0,1999-01-01,1999-01-01,1999-01-01,1999-01-01,1999-01-01,1999-01-01,0,0,0,0,0,0,1999-01-01,1999-01-01,1999-01-01,1999-01-01,1999-01-01,1999-01-01,2004-05-25,2004-05-20,1999-01-01,2004-05-24,2004-05-17,1999-01-01,1999-01-01,1999-01-01,1999-01-01,1999-01-01,1999-01-01,1999-01-01,0,0,0,0,1,0,1,0,0,0,0,0,0,0,0,0,0,1,0,0,0,0,0,0,0,0,0,0,1,1,,,,,,,p2n,,,Life.Empty,Life.Empty,Life.Empty,Life.BullRetrace,Life.Bear,,
2004-05-26,0.37745,,,,,0.4,0.41615,0.42901,0.43721,-0.02106,-0.01869,-0.02901,-0.0234,-0.03721,-0.03105,-0.01236,-0.00471,-0.00765,0.3856,0.40092,-0.01532,-0.01485,-0.01077,-0.00047,,,-1.18,0.27,-0.27,0.54,-1.87,0.54,-1.89,6.34,15.0,2.0,6.0,6.0,12.0,10.0,13.0,15.0,-0.0,-0.0025,0.00108,-0.00305,0.35363,26.12457,,,,,16.88742,15.53222,,,47.65371,42.05737,,,,,0.01928,0.02404,,,0,0,0,,,,,,-0.15,,,0.0,0.0,0.0,0.0,0.0,0.0,1999-01-01,1999-01-01,1999-01-01,1999-01-01,1999-01-01,1999-01-01,,,,,,,0.0,0.0,0.0,0.0,0.0,0.0,0.0,0.0,0.0,0.0,0.0,0.0,0.379,0.382,0.402,0.374,0.377,0.397,2004-05-25,2004-05-20,2004-05-12,2004-05-24,2004-05-18,2004-05-10,0.0,0.0,0.0,100.0,100.0,100.0,1999-01-01,1999-01-01,1999-01-01,1999-01-01,1999-01-01,1999-01-01,72900.0,297200.0,23000.0,-23.83,-8.33,-40.55,0.0,0.0,0.0,100.0,100.0,100.0,0.0,0.0,0.0,100.0,100.0,100.0,0.0,0.0,0.0,100.0,100.0,100.0,23.242,18.264,0.0,6.468,3.32,100.0,0.0,0.0,0.0,100.0,100.0,100.0,1999-01-01,1999-01-01,1999-01-01,1999-01-01,1999-01-01,1999-01-01,0,0,0,0,0,0,1999-01-01,1999-01-01,1999-01-01,1999-01-01,1999-01-01,1999-01-01,2004-05-25,2004-05-20,1999-01-01,2004-05-24,2004-05-17,1999-01-01,1999-01-01,1999-01-01,1999-01-01,1999-01-01,1999-01-01,1999-01-01,0,0,0,0,1,0,1,0,0,0,0,0,0,0,0,0,0,1,0,0,0,0,0,0,0,0,0,0,1,1,,,,,,p2n,,,,Life.Empty,Life.Empty,Life.Empty,Life.BullRetrace,Life.Bear,,
2004-05-27,0.37726,,,,,0.3982,0.4146,0.42797,0.43661,-0.02201,-0.0195,-0.02977,-0.02416,-0.03841,-0.03217,-0.01267,-0.00466,-0.00801,0.38421,0.39912,-0.01491,-0.01486,-0.01083,-4e-05,,,-1.13,0.27,-0.27,0.54,-1.87,0.54,-1.89,6.34,14.0,2.0,6.0,6.0,12.0,10.0,13.0,15.0,0.0,0.0,0.00108,-0.00251,0.4302,30.07968,,,,,16.88742,19.00547,,,58.74587,49.94175,,,,,0.01843,0.02299,,,0,0,0,,,,,,-0.15,,,0.0,0.0,0.0,0.0,0.0,0.0,1999-01-01,1999-01-01,1999-01-01,1999-01-01,1999-01-01,1999-01-01,,,,,,,0.0,0.0,0.0,0.0,0.0,0.0,0.0,0.0,0.0,0.0,0.0,0.0,0.379,0.382,0.402,0.374,0.377,0.397,2004-05-25,2004-05-20,2004-05-12,2004-05-24,2004-05-18,2004-05-10,0.0,0.0,0.0,100.0,100.0,100.0,1999-01-01,1999-01-01,1999-01-01,1999-01-01,1999-01-01,1999-01-01,297200.0,23000.0,180000.0,-8.33,-40.55,27.24,0.0,0.0,0.0,100.0,100.0,100.0,0.0,0.0,0.0,100.0,100.0,100.0,0.0,0.0,0.0,100.0,100.0,100.0,23.242,18.264,0.0,6.468,3.32,100.0,0.0,0.0,0.0,100.0,100.0,100.0,1999-01-01,1999-01-01,1999-01-01,1999-01-01,1999-01-01,1999-01-01,0,0,0,0,0,0,1999-01-01,1999-01-01,1999-01-01,1999-01-01,1999-01-01,1999-01-01,2004-05-25,2004-05-20,1999-01-01,2004-05-24,2004-05-17,1999-01-01,1999-01-01,1999-01-01,1999-01-01,1999-01-01,1999-01-01,1999-01-01,0,0,0,0,1,0,1,0,0,0,0,0,0,0,0,0,0,1,0,0,0,0,0,0,0,0,0,0,1,1,180000.0,,,,p2n,,,,n2p,Life.Empty,Life.Empty,Life.Empty,Life.BullRetrace,Life.Bear,,
2004-05-28,0.37709,,,,,0.39654,0.41311,0.42696,0.43601,-0.0229,-0.02028,-0.03042,-0.02487,-0.03947,-0.03324,-0.01296,-0.00458,-0.00838,0.38304,0.39745,-0.01441,-0.01477,-0.01086,0.00036,,,-1.08,0.27,-0.27,0.54,-1.87,0.54,-1.89,6.34,13.0,2.0,6.0,6.0,12.0,10.0,13.0,15.0,0.0,0.0,0.00108,-0.00251,0.4302,30.07968,,,,,16.88742,16.88742,,,50.49505,52.29821,,,,,0.01747,0.02198,,,0,0,0,,,,,,-0.15,,,0.0,0.0,0.0,0.0,0.0,0.0,1999-01-01,1999-01-01,1999-01-01,1999-01-01,1999-01-01,1999-01-01,,,,,,,0.0,0.0,0.0,0.0,0.0,0.0,0.0,0.0,0.0,0.0,0.0,0.0,0.379,0.382,0.402,0.374,0.377,0.397,2004-05-25,2004-05-20,2004-05-12,2004-05-24,2004-05-18,2004-05-10,0.0,0.0,0.0,100.0,100.0,100.0,1999-01-01,1999-01-01,1999-01-01,1999-01-01,1999-01-01,1999-01-01,23000.0,180000.0,154600.0,-40.55,27.24,-28.51,0.0,0.0,0.0,100.0,100.0,100.0,0.0,0.0,0.0,100.0,100.0,100.0,0.0,0.0,0.0,100.0,100.0,100.0,23.242,18.264,0.0,6.468,3.32,100.0,0.0,0.0,0.0,100.0,100.0,100.0,1999-01-01,1999-01-01,1999-01-01,1999-01-01,1999-01-01,1999-01-01,0,0,0,0,0,0,1999-01-01,1999-01-01,1999-01-01,1999-01-01,1999-01-01,1999-01-01,2004-05-25,2004-05-20,1999-01-01,2004-05-24,2004-05-17,1999-01-01,1999-01-01,1999-01-01,1999-01-01,1999-01-01,1999-01-01,1999-01-01,0,0,0,0,1,0,1,0,0,0,0,0,0,0,0,0,0,1,0,0,0,0,0,0,0,0,0,0,1,1,,,154600.0,,,,,n2p,p2n,Life.Empty,Life.Empty,Life.Empty,Life.BullRetrace,Life.Bear,,
2004-05-31,0.37687,,,0.377,,0.39501,0.41168,0.42596,0.43542,-0.02374,-0.02106,-0.03095,-0.02553,-0.04041,-0.03427,-0.01321,-0.00447,-0.00874,0.38205,0.39591,-0.01386,-0.01459,-0.01085,0.00073,,,-1.03,0.27,-0.27,0.54,-1.87,0.54,-1.89,6.34,12.0,2.0,6.0,6.0,12.0,10.0,13.0,15.0,0.0,0.0,0.00089,-0.00251,0.35613,26.2605,,,,,16.88742,16.88742,16.887,,50.49505,53.24532,,,,,0.0164,0.02102,,,0,0,0,,,,,,-0.15,,,0.0,0.0,0.0,0.0,0.0,0.0,1999-01-01,1999-01-01,1999-01-01,1999-01-01,1999-01-01,1999-01-01,,,,,,,0.0,0.0,0.0,0.0,0.0,0.0,0.0,0.0,0.0,0.0,0.0,0.0,0.379,0.382,0.402,0.377,0.374,0.377,2004-05-25,2004-05-20,2004-05-12,2004-05-31,2004-05-24,2004-05-18,0.0,0.0,0.0,100.0,100.0,100.0,1999-01-01,1999-01-01,1999-01-01,1999-01-01,1999-01-01,1999-01-01,180000.0,154600.0,37500.0,27.24,-28.51,4.05,0.0,0.0,0.0,100.0,100.0,100.0,0.0,0.0,0.0,100.0,100.0,100.0,0.0,0.0,0.0,100.0,100.0,100.0,23.242,18.264,0.0,16.887,6.468,3.32,0.0,0.0,0.0,100.0,100.0,100.0,1999-01-01,1999-01-01,1999-01-01,1999-01-01,1999-01-01,1999-01-01,0,0,0,0,0,0,1999-01-01,1999-01-01,1999-01-01,1999-01-01,1999-01-01,1999-01-01,2004-05-25,2004-05-20,1999-01-01,2004-05-31,2004-05-24,2004-05-17,1999-01-01,1999-01-01,1999-01-01,1999-01-01,1999-01-01,1999-01-01,0,0,0,0,1,0,0,1,0,0,0,0,0,0,0,0,0,1,0,1,0,0,0,0,0,0,0,0,1,1,,,,,,,n2p,p2n,,Life.Empty,Life.Empty,Life.Empty,Life.BullRetrace,Life.Bear,,
2004-06-01,0.37656,,,,0.379,0.39378,0.4104,0.42503,0.43486,-0.02446,-0.02181,-0.03125,-0.02615,-0.04108,-0.03525,-0.01344,-0.00434,-0.0091,0.3816,0.39466,-0.01306,-0.01428,-0.01079,0.00122,,,-0.95,0.27,-0.27,0.54,-1.87,0.54,-1.89,6.34,11.0,2.0,6.0,6.0,12.0,10.0,13.0,15.0,0.0025,0.0,0.00089,-0.00251,0.35613,26.2605,,,,,27.43682,20.40389,,27.437,55.88559,52.2919,,,,,0.01541,0.0201,,,0,0,0,,,,,,-0.15,,,0.0,0.0,0.0,0.0,0.0,0.0,1999-01-01,1999-01-01,1999-01-01,1999-01-01,1999-01-01,1999-01-01,,,,,,,0.0,0.0,0.0,0.0,0.0,0.0,0.0,0.0,0.0,0.0,0.0,0.0,0.379,0.379,0.382,0.377,0.374,0.377,2004-06-01,2004-05-25,2004-05-20,2004-05-31,2004-05-24,2004-05-18,0.0,0.0,0.0,100.0,100.0,100.0,1999-01-01,1999-01-01,1999-01-01,1999-01-01,1999-01-01,1999-01-01,154600.0,37500.0,24100.0,-28.51,4.05,-41.9,0.0,0.0,0.0,100.0,100.0,100.0,0.0,0.0,0.0,100.0,100.0,100.0,0.0,0.0,0.0,100.0,100.0,100.0,27.437,23.242,18.264,16.887,6.468,3.32,0.0,0.0,0.0,100.0,100.0,100.0,1999-01-01,1999-01-01,1999-01-01,1999-01-01,1999-01-01,1999-01-01,0,0,0,0,0,0,1999-01-01,1999-01-01,1999-01-01,1999-01-01,1999-01-01,1999-01-01,2004-06-01,2004-05-25,2004-05-20,2004-05-31,2004-05-24,2004-05-17,1999-01-01,1999-01-01,1999-01-01,1999-01-01,1999-01-01,1999-01-01,0,0,0,0,1,0,0,1,0,0,0,0,0,0,0,0,0,1,0,1,0,0,0,0,0,0,0,0,1,1,,,24100.0,,,n2p,p2n,,p2n,Life.Empty,Life.Empty,Life.Empty,Life.BullRetrace,Life.Bear,,
2004-06-02,0.37617,,,,,0.39246,0.40907,0.42407,0.43428,-0.02521,-0.02254,-0.03161,-0.02672,-0.04182,-0.03617,-0.01363,-0.00417,-0.00945,0.38083,0.39332,-0.0125,-0.01393,-0.0107,0.00143,,,-0.84,0.27,-0.27,0.54,-1.87,0.54,-1.89,6.34,10.0,2.0,6.0,6.0,12.0,10.0,13.0,15.0,-0.0,-0.0025,0.00089,-0.00214,0.41667,29.41176,,,,,25.37313,23.23246,25.373,,55.88559,54.08874,,,,,0.01485,0.01923,,,0,0,0,,,,,,-0.15,,,0.0,0.0,0.0,0.0,0.0,0.0,1999-01-01,1999-01-01,1999-01-01,1999-01-01,1999-01-01,1999-01-01,,,,,,,0.0,0.0,0.0,0.0,0.0,0.0,0.0,0.0,0.0,0.0,0.0,0.0,0.379,0.379,0.382,0.377,0.374,0.377,2004-06-01,2004-05-25,2004-05-20,2004-05-31,2004-05-24,2004-05-18,0.0,0.0,0.0,100.0,100.0,100.0,1999-01-01,1999-01-01,1999-01-01,1999-01-01,1999-01-01,1999-01-01,37500.0,24100.0,79000.0,4.05,-41.9,-34.97,0.0,0.0,0.0,100.0,100.0,100.0,0.0,0.0,0.0,100.0,100.0,100.0,0.0,0.0,0.0,100.0,100.0,100.0,27.437,23.242,18.264,25.373,16.887,6.468,0.0,0.0,0.0,100.0,100.0,100.0,1999-01-01,1999-01-01,1999-01-01,1999-01-01,1999-01-01,1999-01-01,0,0,0,0,0,0,1999-01-01,1999-01-01,1999-01-01,1999-01-01,1999-01-01,1999-01-01,2004-06-01,2004-05-25,2004-05-20,2004-06-02,2004-05-31,2004-05-24,1999-01-01,1999-01-01,1999-01-01,1999-01-01,1999-01-01,1999-01-01,0,0,0,0,1,0,0,1,0,0,0,0,0,0,0,0,0,1,0,1,0,0,0,0,0,0,0,0,1,1,,,,,n2p,p2n,,p2n,,Life.Empty,Life.Empty,Life.Empty,Life.BullRetrace,Life.Bear,,
2004-06-03,0.37568,,,,,0.39124,0.4078,0.42313,0.43371,-0.02591,-0.02326,-0.03189,-0.02725,-0.04246,-0.03705,-0.01379,-0.00399,-0.0098,0.38018,0.39208,-0.01191,-0.01352,-0.01058,0.00162,-0.011,,-0.71,0.27,-0.27,0.54,-1.87,0.54,-1.89,6.34,9.0,2.0,6.0,6.0,12.0,10.0,13.0,15.0,0.0,0.0,0.00089,-0.00196,0.45455,31.25,,,,,40.23904,31.01633,,,65.77348,59.18155,,,,,0.01451,0.0184,,,0,0,0,,,,,,-0.15,,,0.0,0.0,0.0,0.0,0.0,0.0,1999-01-01,1999-01-01,1999-01-01,1999-01-01,1999-01-01,1999-01-01,,,,,,,0.0,0.0,0.0,0.0,0.0,0.0,0.0,0.0,0.0,0.0,0.0,0.0,0.379,0.379,0.382,0.377,0.374,0.377,2004-06-01,2004-05-25,2004-05-20,2004-05-31,2004-05-24,2004-05-18,0.0,0.0,0.0,100.0,100.0,100.0,1999-01-01,1999-01-01,1999-01-01,1999-01-01,1999-01-01,1999-01-01,24100.0,79000.0,80000.0,-41.9,-34.97,30.23,0.0,0.0,0.0,-0.011,100.0,100.0,0.0,0.0,0.0,-0.01352,100.0,100.0,0.0,0.0,0.0,100.0,100.0,100.0,27.437,23.242,18.264,25.373,16.887,6.468,0.0,0.0,0.0,100.0,100.0,100.0,1999-01-01,1999-01-01,1999-01-01,2004-06-03,1999-01-01,1999-01-01,0,0,0,1980,0,0,1999-01-01,1999-01-01,1999-01-01,1999-01-01,1999-01-01,1999-01-01,2004-06-01,2004-05-25,2004-05-20,2004-06-02,2004-05-31,2004-05-24,1999-01-01,1999-01-01,1999-01-01,1999-01-01,1999-01-01,1999-01-01,0,0,0,0,1,0,0,1,0,0,1,0,0,0,0,0,0,1,0,1,0,0,0,0,0,0,0,0,1,0,80000.0,,,,p2n,,p2n,,n2p,Life.Empty,Life.Empty,Life.Empty,Life.BullRetrace,Life.Bear,,
2004-06-04,0.37513,,,,,0.39011,0.40658,0.42221,0.43314,-0.02656,-0.02395,-0.0321,-0.02772,-0.04302,-0.03788,-0.01392,-0.00377,-0.01015,0.37963,0.39094,-0.01131,-0.01308,-0.01043,0.00177,,,-0.57,0.27,-0.27,0.54,-1.87,0.54,-1.89,6.34,8.0,2.0,6.0,6.0,12.0,10.0,13.0,15.0,0.0,0.0,0.00089,-0.00143,0.625,38.46154,,,,,50.24876,38.62031,,,70.27084,63.97664,,,,,0.0142,0.01762,,,0,0,0,,,,,,-0.15,,,0.0,0.0,0.0,0.0,0.0,0.0,1999-01-01,1999-01-01,1999-01-01,1999-01-01,1999-01-01,1999-01-01,,,,,,,0.0,0.0,0.0,0.0,0.0,0.0,0.0,0.0,0.0,0.0,0.0,0.0,0.379,0.379,0.382,0.377,0.374,0.377,2004-06-01,2004-05-25,2004-05-20,2004-05-31,2004-05-24,2004-05-18,0.0,0.0,0.0,100.0,100.0,100.0,1999-01-01,1999-01-01,1999-01-01,1999-01-01,1999-01-01,1999-01-01,79000.0,80000.0,36000.0,-34.97,30.23,6.5,0.0,0.0,0.0,-0.011,100.0,100.0,0.0,0.0,0.0,-0.01352,100.0,100.0,0.0,0.0,0.0,100.0,100.0,100.0,27.437,23.242,18.264,25.373,16.887,6.468,0.0,0.0,0.0,100.0,100.0,100.0,1999-01-01,1999-01-01,1999-01-01,2004-06-03,1999-01-01,1999-01-01,0,0,0,1980,0,0,1999-01-01,1999-01-01,1999-01-01,1999-01-01,1999-01-01,1999-01-01,2004-06-01,2004-05-25,2004-05-20,2004-06-02,2004-05-31,2004-05-24,1999-01-01,1999-01-01,1999-01-01,1999-01-01,1999-01-01,1999-01-01,0,0,0,0,1,0,0,1,0,0,1,0,0,0,0,0,0,1,0,1,0,0,0,0,0,0,0,0,1,0,,,,,,p2n,,n2p,,Life.Empty,Life.Empty,Life.Empty,Life.BullRetrace,Life.Bear,,
2004-06-07,0.37454,,,,,0.38908,0.4054,0.42131,0.43257,-0.02717,-0.02463,-0.03223,-0.02816,-0.0435,-0.03865,-0.01402,-0.00353,-0.01049,0.37916,0.38988,-0.01071,-0.01261,-0.01025,0.00189,,,-0.41,0.27,-0.27,0.54,-1.87,0.54,-1.89,6.34,7.0,2.0,6.0,6.0,12.0,10.0,13.0,15.0,0.0,0.0,0.00089,-0.00089,1.0,50.0,,,,,66.88742,52.45841,,66.887,80.15873,72.06768,,,,,0.01391,0.01687,,,0,0,0,,,,,,-0.15,,,0.0,0.0,0.0,0.0,0.0,0.0,1999-01-01,1999-01-01,1999-01-01,1999-01-01,1999-01-01,1999-01-01,,,,,,,0.0,0.0,0.0,0.0,0.0,0.0,0.0,0.0,0.0,0.0,0.0,0.0,0.379,0.379,0.382,0.377,0.374,0.377,2004-06-01,2004-05-25,2004-05-20,2004-05-31,2004-05-24,2004-05-18,0.0,0.0,0.0,100.0,100.0,100.0,1999-01-01,1999-01-01,1999-01-01,1999-01-01,1999-01-01,1999-01-01,80000.0,36000.0,31000.0,30.23,6.5,-24.62,0.0,0.0,0.0,-0.011,100.0,100.0,0.0,0.0,0.0,-0.01352,100.0,100.0,0.0,0.0,0.0,100.0,100.0,100.0,66.887,27.437,23.242,25.373,16.887,6.468,0.0,0.0,0.0,100.0,100.0,100.0,1999-01-01,1999-01-01,1999-01-01,2004-06-03,1999-01-01,1999-01-01,0,0,0,1980,0,0,1999-01-01,1999-01-01,1999-01-01,1999-01-01,1999-01-01,1999-01-01,2004-06-07,2004-06-01,2004-05-25,2004-06-02,2004-05-31,2004-05-24,1999-01-01,1999-01-01,1999-01-01,1999-01-01,1999-01-01,1999-01-01,0,0,0,0,1,0,0,1,0,0,1,0,0,0,0,0,0,1,0,1,0,0,0,0,0,0,0,0,1,0,,,,,p2n,,n2p,,,Life.Empty,Life.Empty,Life.Empty,Life.BullRetrace,Life.Bear,,
2004-06-08,0.37397,,,0.369,,0.38753,0.40397,0.42027,0.43194,-0.02797,-0.02528,-0.03274,-0.02854,-0.04441,-0.03937,-0.0141,-0.00327,-0.01083,0.3776,0.38833,-0.01073,-0.01223,-0.01005,0.0015,,,-0.26,0.27,-0.27,0.54,-1.87,0.54,-1.89,6.34,6.0,2.0,6.0,6.0,12.0,10.0,13.0,15.0,-0.0,-0.0076,0.00071,-0.00144,0.49751,33.22259,,,,,16.55629,44.56415,16.556,,61.68998,70.70652,,,,,0.01346,0.01616,,,0,0,0,,,,,,-0.15,,,0.0,0.0,0.0,0.0,0.0,0.0,1999-01-01,1999-01-01,1999-01-01,1999-01-01,1999-01-01,1999-01-01,,,,,,,0.0,0.0,0.0,0.0,0.0,0.0,0.0,0.0,0.0,0.0,0.0,0.0,0.379,0.379,0.382,0.369,0.377,0.374,2004-06-01,2004-05-25,2004-05-20,2004-06-08,2004-05-31,2004-05-24,0.0,0.0,0.0,100.0,100.0,100.0,1999-01-01,1999-01-01,1999-01-01,1999-01-01,1999-01-01,1999-01-01,36000.0,31000.0,39000.0,6.5,-24.62,-27.89,0.0,0.0,0.0,-0.011,100.0,100.0,0.0,0.0,0.0,-0.01352,100.0,100.0,0.0,0.0,0.0,100.0,100.0,100.0,66.887,27.437,23.242,16.556,25.373,16.887,0.0,0.0,0.0,100.0,100.0,100.0,1999-01-01,1999-01-01,1999-01-01,2004-06-03,1999-01-01,1999-01-01,0,0,0,1980,0,0,1999-01-01,1999-01-01,1999-01-01,1999-01-01,1999-01-01,1999-01-01,2004-06-07,2004-06-01,2004-05-25,2004-06-08,2004-06-02,2004-05-31,1999-01-01,1999-01-01,1999-01-01,1999-01-01,1999-01-01,1999-01-01,0,0,0,0,1,0,1,0,0,0,1,0,0,0,0,0,0,1,1,0,0,0,0,0,0,0,0,0,1,0,,,,,,n2p,,,,Life.Empty,Life.Empty,Life.Empty,Life.BullRetrace,Life.Bear,,
2004-06-09,0.37349,,,,,0.3863,0.4027,0.41931,0.43134,-0.02864,-0.0259,-0.03301,-0.02888,-0.04504,-0.04004,-0.01414,-0.00298,-0.01116,0.37666,0.38708,-0.01042,-0.01187,-0.00982,0.00145,,,-0.13,0.27,-0.27,0.54,-1.87,0.54,-1.89,6.34,5.0,2.0,6.0,6.0,12.0,10.0,13.0,15.0,0.0025,0.0,0.00071,-0.00144,0.49751,33.22259,,,,,33.11258,38.8521,,,51.47205,64.44025,,,,,0.01304,0.01549,,,0,0,0,,,,,,-0.15,,,0.0,0.0,0.0,0.0,0.0,0.0,1999-01-01,1999-01-01,1999-01-01,1999-01-01,1999-01-01,1999-01-01,,,,,,,0.0,0.0,0.0,0.0,0.0,0.0,0.0,0.0,0.0,0.0,0.0,0.0,0.379,0.379,0.382,0.369,0.377,0.374,2004-06-01,2004-05-25,2004-05-20,2004-06-08,2004-05-31,2004-05-24,0.0,0.0,0.0,100.0,100.0,100.0,1999-01-01,1999-01-01,1999-01-01,1999-01-01,1999-01-01,1999-01-01,31000.0,39000.0,54000.0,-24.62,-27.89,16.98,0.0,0.0,0.0,-0.011,100.0,100.0,0.0,0.0,0.0,-0.01352,100.0,100.0,0.0,0.0,0.0,100.0,100.0,100.0,66.887,27.437,23.242,16.556,25.373,16.887,0.0,0.0,0.0,100.0,100.0,100.0,1999-01-01,1999-01-01,1999-01-01,2004-06-03,1999-01-01,1999-01-01,0,0,0,1980,0,0,1999-01-01,1999-01-01,1999-01-01,1999-01-01,1999-01-01,1999-01-01,2004-06-07,2004-06-01,2004-05-25,2004-06-08,2004-06-02,2004-05-31,1999-01-01,1999-01-01,1999-01-01,1999-01-01,1999-01-01,1999-01-01,0,0,0,0,1,0,1,0,0,0,1,0,0,0,0,0,0,1,1,0,0,0,0,0,0,0,0,0,1,0,54000.0,,,,n2p,,,,n2p,Life.Empty,Life.Empty,Life.Empty,Life.BullRetrace,Life.Bear,,
2004-06-10,0.3732,,,,,0.38516,0.40148,0.41836,0.43075,-0.02927,-0.0265,-0.0332,-0.02918,-0.04559,-0.04066,-0.01416,-0.00268,-0.01148,0.37587,0.38593,-0.01006,-0.01151,-0.00958,0.00145,,,-0.05,0.27,-0.27,0.54,-1.87,0.54,-1.89,6.34,4.0,2.0,6.0,6.0,12.0,10.0,13.0,15.0,0.0,0.0,0.00071,-0.00126,0.56818,36.23188,,,,,33.11258,27.59382,,,41.25413,51.47205,,,,,0.01228,0.01486,,,0,0,0,,,,,,-0.15,,,0.0,0.0,0.0,0.0,0.0,0.0,1999-01-01,1999-01-01,1999-01-01,1999-01-01,1999-01-01,1999-01-01,,,,,,,0.0,0.0,0.0,0.0,0.0,0.0,0.0,0.0,0.0,0.0,0.0,0.0,0.379,0.379,0.382,0.369,0.377,0.374,2004-06-01,2004-05-25,2004-05-20,2004-06-08,2004-05-31,2004-05-24,0.0,0.0,0.0,100.0,100.0,100.0,1999-01-01,1999-01-01,1999-01-01,1999-01-01,1999-01-01,1999-01-01,39000.0,54000.0,30000.0,-27.89,16.98,-0.81,0.0,0.0,0.0,-0.011,100.0,100.0,0.0,0.0,0.0,-0.01352,100.0,100.0,0.0,0.0,0.0,100.0,100.0,100.0,66.887,27.437,23.242,16.556,25.373,16.887,0.0,0.0,0.0,100.0,100.0,100.0,1999-01-01,1999-01-01,1999-01-01,2004-06-03,1999-01-01,1999-01-01,0,0,0,1980,0,0,1999-01-01,1999-01-01,1999-01-01,1999-01-01,1999-01-01,1999-01-01,2004-06-07,2004-06-01,2004-05-25,2004-06-08,2004-06-02,2004-05-31,1999-01-01,1999-01-01,1999-01-01,1999-01-01,1999-01-01,1999-01-01,0,0,0,0,1,0,1,0,0,0,1,0,0,0,0,0,0,1,1,0,0,0,0,0,0,0,0,0,1,0,,,,,,,,n2p,,Life.Empty,Life.Empty,Life.Empty,Life.BullRetrace,Life.Bear,,
2004-06-11,0.3731,,,,0.377,0.3845,0.4005,0.41753,0.43021,-0.02971,-0.02708,-0.03303,-0.02943,-0.04571,-0.04123,-0.01415,-0.00235,-0.0118,0.37598,0.38524,-0.00926,-0.01106,-0.00932,0.0018,,,-0.03,0.27,-0.27,0.54,-1.87,0.54,-1.89,6.34,3.0,2.0,6.0,6.0,12.0,10.0,13.0,15.0,0.0051,0.0,0.00108,-0.0009,1.19841,54.51264,,,,,66.88742,44.37086,,66.887,66.33663,53.02094,,,,,0.01195,0.01426,,,0,0,0,,,,,,-0.15,,,0.0,0.0,0.0,0.0,0.0,0.0,1999-01-01,1999-01-01,1999-01-01,1999-01-01,1999-01-01,1999-01-01,,,,,,,0.0,0.0,0.0,0.0,0.0,0.0,0.0,0.0,0.0,0.0,0.0,0.0,0.377,0.379,0.379,0.369,0.377,0.374,2004-06-11,2004-06-01,2004-05-25,2004-06-08,2004-05-31,2004-05-24,0.0,0.0,0.0,100.0,100.0,100.0,1999-01-01,1999-01-01,1999-01-01,1999-01-01,1999-01-01,1999-01-01,54000.0,30000.0,12000.0,16.98,-0.81,-21.95,0.0,0.0,0.0,-0.011,100.0,100.0,0.0,0.0,0.0,-0.01352,100.0,100.0,0.0,0.0,0.0,100.0,100.0,100.0,66.887,66.887,27.437,16.556,25.373,16.887,0.0,0.0,0.0,100.0,100.0,100.0,1999-01-01,1999-01-01,1999-01-01,2004-06-03,1999-01-01,1999-01-01,0,0,0,1980,0,0,1999-01-01,1999-01-01,1999-01-01,1999-01-01,1999-01-01,1999-01-01,2004-06-11,2004-06-07,2004-06-01,2004-06-08,2004-06-02,2004-05-31,1999-01-01,1999-01-01,1999-01-01,1999-01-01,1999-01-01,1999-01-01,0,0,0,0,1,0,1,0,0,0,1,0,0,0,0,0,0,1,1,0,0,0,0,0,0,0,0,0,1,0,,,,,,,n2p,,,Life.Empty,Life.Empty,Life.Empty,Life.BullRetrace,Life.Bear,,
2004-06-14,0.37317,,,,,0.3835,0.39936,0.41662,0.42962,-0.03026,-0.02763,-0.03312,-0.02964,-0.04612,-0.04175,-0.01412,-0.00201,-0.01211,0.37529,0.38422,-0.00893,-0.01063,-0.00904,0.0017,,,-0.04,0.27,-0.27,0.54,-1.87,0.54,-1.89,6.34,2.0,2.0,6.0,6.0,12.0,10.0,13.0,15.0,-0.0,-0.0051,0.00072,-0.00126,0.57062,36.33094,,,,,33.11258,44.37086,,,66.33663,57.9758,,,,,0.01182,0.0137,,,0,0,0,,,,,,-0.15,,,0.0,0.0,0.0,0.0,0.0,0.0,1999-01-01,1999-01-01,1999-01-01,1999-01-01,1999-01-01,1999-01-01,,,,,,,0.0,0.0,0.0,0.0,0.0,0.0,0.0,0.0,0.0,0.0,0.0,0.0,0.377,0.379,0.379,0.369,0.377,0.374,2004-06-11,2004-06-01,2004-05-25,2004-06-08,2004-05-31,2004-05-24,0.0,0.0,0.0,100.0,100.0,100.0,1999-01-01,1999-01-01,1999-01-01,1999-01-01,1999-01-01,1999-01-01,30000.0,12000.0,5000.0,-0.81,-21.95,-51.04,0.0,0.0,0.0,-0.011,100.0,100.0,0.0,0.0,0.0,-0.01352,100.0,100.0,0.0,0.0,0.0,100.0,100.0,100.0,66.887,66.887,27.437,16.556,25.373,16.887,0.0,0.0,0.0,100.0,100.0,100.0,1999-01-01,1999-01-01,1999-01-01,2004-06-03,1999-01-01,1999-01-01,0,0,0,1980,0,0,1999-01-01,1999-01-01,1999-01-01,1999-01-01,1999-01-01,1999-01-01,2004-06-11,2004-06-07,2004-06-01,2004-06-08,2004-06-02,2004-05-31,1999-01-01,1999-01-01,1999-01-01,1999-01-01,1999-01-01,1999-01-01,0,0,0,0,1,0,1,0,0,0,1,0,0,0,0,0,0,1,1,0,0,0,0,0,0,0,0,0,1,0,,,,,,n2p,,,,Life.Empty,Life.Empty,Life.Empty,Life.BullRetrace,Life.Bear,,
2004-06-15,0.37332,,,,,0.38258,0.39827,0.41573,0.42904,-0.03077,-0.02815,-0.03315,-0.0298,-0.04647,-0.04221,-0.01406,-0.00165,-0.01241,0.37471,0.38328,-0.00857,-0.01022,-0.00875,0.00165,,,-0.09,0.27,-0.27,0.54,-1.87,0.54,-1.89,6.34,1.0,2.0,6.0,6.0,12.0,10.0,13.0,15.0,0.0,0.0,0.00072,-0.00109,0.66447,39.92095,,,,,33.11258,44.37086,33.113,,66.33663,66.33663,,,,,0.01116,0.01316,,,0,0,0,,,,,,-0.15,,,0.0,0.0,0.0,0.0,0.0,0.0,1999-01-01,1999-01-01,1999-01-01,1999-01-01,1999-01-01,1999-01-01,,,,,,,0.0,0.0,0.0,0.0,0.0,0.0,0.0,0.0,0.0,0.0,0.0,0.0,0.377,0.379,0.379,0.369,0.377,0.374,2004-06-11,2004-06-01,2004-05-25,2004-06-08,2004-05-31,2004-05-24,0.0,0.0,0.0,100.0,100.0,100.0,1999-01-01,1999-01-01,1999-01-01,1999-01-01,1999-01-01,1999-01-01,12000.0,5000.0,48500.0,-21.95,-51.04,39.36,0.0,0.0,0.0,-0.011,100.0,100.0,0.0,0.0,0.0,-0.01352,100.0,100.0,0.0,0.0,0.0,100.0,100.0,100.0,66.887,66.887,27.437,33.113,16.556,25.373,0.0,0.0,0.0,100.0,100.0,100.0,1999-01-01,1999-01-01,1999-01-01,2004-06-03,1999-01-01,1999-01-01,0,0,0,1980,0,0,1999-01-01,1999-01-01,1999-01-01,1999-01-01,1999-01-01,1999-01-01,2004-06-11,2004-06-07,2004-06-01,2004-06-15,2004-06-08,2004-06-02,1999-01-01,1999-01-01,1999-01-01,1999-01-01,1999-01-01,1999-01-01,0,0,0,0,1,0,1,0,0,0,1,0,0,0,0,0,0,1,0,1,0,0,0,0,0,0,0,0,1,0,48500.0,,,,n2p,,,,n2p,Life.Empty,Life.Empty,Life.Empty,Life.BullRetrace,Life.Bear,,
2004-06-16,0.37348,0.373,,0.372,,0.38173,0.39722,0.41485,0.42847,-0.03125,-0.02865,-0.03313,-0.02993,-0.04675,-0.04263,-0.01398,-0.00128,-0.0127,0.37421,0.38241,-0.00819,-0.00981,-0.00846,0.00162,,,0.14,-0.27,0.54,-1.87,0.54,-1.89,6.34,-4.92,2.0,6.0,6.0,12.0,10.0,13.0,15.0,39.0,0.0,0.0,0.00072,-0.00109,0.66447,39.92095,,,,,39.68254,35.30257,,,49.50495,60.72607,,,,,0.01055,0.01266,,,0,0,0,,,,,,-0.15,,,0.0,0.0,0.0,0.373,0.0,0.0,1999-01-01,1999-01-01,1999-01-01,2004-06-16,1999-01-01,1999-01-01,,,,,,,0.0,0.0,0.0,0.0,0.0,0.0,0.0,0.0,0.0,0.0,0.0,0.0,0.377,0.379,0.379,0.372,0.369,0.377,2004-06-11,2004-06-01,2004-05-25,2004-06-16,2004-06-08,2004-05-31,0.0,0.0,0.0,100.0,100.0,100.0,1999-01-01,1999-01-01,1999-01-01,1999-01-01,1999-01-01,1999-01-01,5000.0,48500.0,31300.0,-51.04,39.36,29.47,0.0,0.0,0.0,-0.011,100.0,100.0,0.0,0.0,0.0,-0.01352,100.0,100.0,0.0,0.0,0.0,100.0,100.0,100.0,66.887,66.887,27.437,33.113,16.556,25.373,0.0,0.0,0.0,100.0,100.0,100.0,1999-01-01,1999-01-01,1999-01-01,2004-06-03,1999-01-01,1999-01-01,0,0,0,1980,0,0,1999-01-01,1999-01-01,1999-01-01,1999-01-01,1999-01-01,1999-01-01,2004-06-11,2004-06-07,2004-06-01,2004-06-15,2004-06-08,2004-06-02,1999-01-01,1999-01-01,1999-01-01,1999-01-01,1999-01-01,1999-01-01,0,0,0,1,1,0,0,0,0,0,1,0,0,0,0,0,0,1,0,1,0,0,0,0,0,0,0,0,1,0,,,,,,,,n2p,,Life.Empty,Life.Empty,Life.Empty,Life.BullRetrace,Life.Bear,,
2004-06-17,0.37359,,,,,0.38114,0.39631,0.41404,0.42793,-0.03162,-0.02912,-0.03291,-0.03001,-0.04679,-0.043,-0.01388,-0.00089,-0.01299,0.3742,0.38179,-0.00759,-0.00937,-0.00815,0.00178,,,0.11,-0.27,0.54,-1.87,0.54,-1.89,6.34,-4.92,1.0,6.0,6.0,12.0,10.0,13.0,15.0,39.0,0.0026,0.0,0.00091,-0.00109,0.83553,45.51971,,,,,60.31746,44.37086,,,58.08581,57.9758,,,,,0.01016,0.01218,,,0,0,0,,,,,,-0.15,,,0.0,0.0,0.0,0.373,0.0,0.0,1999-01-01,1999-01-01,1999-01-01,2004-06-16,1999-01-01,1999-01-01,0.16,,,,,,1.0,0.0,0.0,0.0,0.0,0.0,0.0,0.0,0.0,0.0,0.0,0.0,0.377,0.379,0.379,0.372,0.369,0.377,2004-06-11,2004-06-01,2004-05-25,2004-06-16,2004-06-08,2004-05-31,0.0,0.0,0.0,100.0,100.0,100.0,1999-01-01,1999-01-01,1999-01-01,1999-01-01,1999-01-01,1999-01-01,48500.0,31300.0,22500.0,39.36,29.47,20.64,0.0,0.0,0.0,-0.011,100.0,100.0,0.0,0.0,0.0,-0.01352,100.0,100.0,0.0,0.0,0.0,100.0,100.0,100.0,66.887,66.887,27.437,33.113,16.556,25.373,0.0,0.0,0.0,100.0,100.0,100.0,1999-01-01,1999-01-01,1999-01-01,2004-06-03,1999-01-01,1999-01-01,0,0,0,1980,0,0,1999-01-01,1999-01-01,1999-01-01,1999-01-01,1999-01-01,1999-01-01,2004-06-11,2004-06-07,2004-06-01,2004-06-15,2004-06-08,2004-06-02,1999-01-01,1999-01-01,1999-01-01,1999-01-01,1999-01-01,1999-01-01,0,0,0,1,1,0,0,0,0,0,1,0,0,0,0,0,0,1,0,1,0,0,0,0,0,0,0,0,1,0,,,,,,,n2p,,,Life.Empty,Life.Empty,Life.Empty,Life.BullRetrace,Life.Bear,,
2004-06-18,0.37357,,0.374,,0.379,0.38098,0.39564,0.41335,0.42744,-0.03181,-0.02956,-0.03237,-0.03006,-0.04646,-0.04333,-0.01376,-0.0005,-0.01326,0.37495,0.38159,-0.00664,-0.00882,-0.00785,0.00218,,,-0.15,0.54,-1.87,0.54,-1.89,6.34,-4.92,5.45,6.0,6.0,12.0,10.0,13.0,15.0,39.0,19.0,0.005,0.0,0.00126,-0.00109,1.16447,53.79939,,,,,83.44371,61.1479,,83.444,69.39873,58.9965,,,,,0.01015,0.01173,,,0,0,0,,,,,,-0.15,,,0.374,0.0,0.0,0.373,0.0,0.0,2004-06-18,1999-01-01,1999-01-01,2004-06-16,1999-01-01,1999-01-01,0.0,0.27,,,,,0.0,2.0,0.0,0.0,0.0,0.0,0.0,0.0,0.0,0.0,0.0,0.0,0.379,0.377,0.379,0.372,0.369,0.377,2004-06-18,2004-06-11,2004-06-01,2004-06-16,2004-06-08,2004-05-31,0.0,0.0,0.0,100.0,100.0,100.0,1999-01-01,1999-01-01,1999-01-01,1999-01-01,1999-01-01,1999-01-01,31300.0,22500.0,51000.0,29.47,20.64,2.44,0.0,0.0,0.0,-0.011,100.0,100.0,0.0,0.0,0.0,-0.01352,100.0,100.0,0.0,0.0,0.0,100.0,100.0,100.0,83.444,66.887,66.887,33.113,16.556,25.373,0.0,0.0,0.0,100.0,100.0,100.0,1999-01-01,1999-01-01,1999-01-01,2004-06-03,1999-01-01,1999-01-01,0,0,0,1980,0,0,1999-01-01,1999-01-01,1999-01-01,1999-01-01,1999-01-01,1999-01-01,2004-06-18,2004-06-11,2004-06-07,2004-06-15,2004-06-08,2004-06-02,1999-01-01,1999-01-01,1999-01-01,1999-01-01,1999-01-01,1999-01-01,0,1,0,1,0,1,0,0,0,0,1,0,0,0,0,0,0,1,0,1,0,0,0,0,0,0,0,0,1,0,,,,,,n2p,,,,Life.Empty,Life.Empty,Life.Empty,Life.BullRetrace,Life.Bear,,
2004-06-21,0.37345,,,,,0.38065,0.39489,0.41262,0.42694,-0.03205,-0.02999,-0.03198,-0.03008,-0.04629,-0.04361,-0.01362,-9e-05,-0.01353,0.3752,0.38122,-0.00602,-0.00826,-0.00754,0.00225,,,-0.12,0.54,-1.87,0.54,-1.89,6.34,-4.92,5.45,5.0,6.0,12.0,10.0,13.0,15.0,39.0,19.0,-0.0,-0.0025,0.00109,-0.00126,0.85876,46.20061,,,,,66.88742,70.2162,,,69.72876,65.73777,,,,,0.00997,0.01131,,,0,0,0,,,,,,-0.15,,,0.374,0.0,0.0,0.373,0.0,0.0,2004-06-18,1999-01-01,1999-01-01,2004-06-16,1999-01-01,1999-01-01,-0.15,0.27,,,,,1.0,2.0,0.0,0.0,0.0,0.0,-0.0,0.0,0.0,0.0,0.0,0.0,0.379,0.377,0.379,0.372,0.369,0.377,2004-06-18,2004-06-11,2004-06-01,2004-06-16,2004-06-08,2004-05-31,0.0,0.0,0.0,100.0,100.0,100.0,1999-01-01,1999-01-01,1999-01-01,1999-01-01,1999-01-01,1999-01-01,22500.0,51000.0,18000.0,20.64,2.44,-12.69,0.0,0.0,0.0,-0.011,100.0,100.0,0.0,0.0,0.0,-0.01352,100.0,100.0,0.0,0.0,0.0,100.0,100.0,100.0,83.444,66.887,66.887,33.113,16.556,25.373,0.0,0.0,0.0,100.0,100.0,100.0,1999-01-01,1999-01-01,1999-01-01,2004-06-03,1999-01-01,1999-01-01,0,0,0,1980,0,0,1999-01-01,1999-01-01,1999-01-01,1999-01-01,1999-01-01,1999-01-01,2004-06-18,2004-06-11,2004-06-07,2004-06-15,2004-06-08,2004-06-02,1999-01-01,1999-01-01,1999-01-01,1999-01-01,1999-01-01,1999-01-01,0,1,0,1,0,1,0,0,0,0,1,0,0,0,0,0,0,1,0,1,0,0,0,0,0,0,0,0,1,0,,,,,n2p,,,,,Life.Empty,Life.Empty,Life.Empty,Life.BullRetrace,Life.Bear,,
2004-06-22,0.37329,,,,,0.37994,0.39398,0.41181,0.42639,-0.03241,-0.03038,-0.03187,-0.03006,-0.04645,-0.04385,-0.01347,0.00032,-0.01379,0.37463,0.3805,-0.00587,-0.00778,-0.00723,0.00192,,,-0.08,0.54,-1.87,0.54,-1.89,6.34,-4.92,5.45,4.0,6.0,12.0,10.0,13.0,15.0,39.0,19.0,-0.0,-0.0051,0.00109,-0.00145,0.74877,42.8169,,,,,33.11258,61.1479,,,44.64625,61.25791,54.03347,,,,0.00962,0.01091,,,0,0,1,,,,,,,-0.15,,0.374,0.0,0.0,0.373,0.0,0.0,2004-06-18,1999-01-01,1999-01-01,2004-06-16,1999-01-01,1999-01-01,-0.19,0.27,,,,,2.0,2.0,0.0,0.0,0.0,0.0,-0.0,0.0,0.0,0.0,0.0,0.0,0.379,0.377,0.379,0.372,0.369,0.377,2004-06-18,2004-06-11,2004-06-01,2004-06-16,2004-06-08,2004-05-31,0.0,0.0,0.0,100.0,100.0,100.0,1999-01-01,1999-01-01,1999-01-01,1999-01-01,1999-01-01,1999-01-01,51000.0,18000.0,12000.0,2.44,-12.69,-11.48,0.0,0.0,0.0,-0.011,100.0,100.0,0.0,0.0,0.0,-0.01352,100.0,100.0,0.0,0.0,0.0,100.0,100.0,100.0,83.444,66.887,66.887,33.113,16.556,25.373,0.0,0.0,0.0,100.0,100.0,100.0,1999-01-01,1999-01-01,1999-01-01,2004-06-03,1999-01-01,1999-01-01,0,0,0,1980,0,0,1999-01-01,1999-01-01,1999-01-01,1999-01-01,1999-01-01,1999-01-01,2004-06-18,2004-06-11,2004-06-07,2004-06-15,2004-06-08,2004-06-02,1999-01-01,1999-01-01,1999-01-01,1999-01-01,1999-01-01,1999-01-01,0,1,0,1,0,1,0,0,0,0,1,0,0,0,0,0,0,1,0,1,0,0,0,0,0,0,0,0,1,0,,,,,,,,,,Life.Empty,Life.Empty,Life.BullRetrace,Life.Bear,Life.BearRecovery,,
2004-06-23,0.37318,,,,,0.37929,0.39309,0.41101,0.42584,-0.03275,-0.03075,-0.03172,-0.03,-0.04655,-0.04405,-0.0133,0.00075,-0.01405,0.37415,0.37983,-0.00568,-0.00736,-0.00692,0.00168,,,-0.05,0.54,-1.87,0.54,-1.89,6.34,-4.92,5.45,3.0,6.0,12.0,10.0,13.0,15.0,39.0,19.0,0.0,0.0,0.00109,-0.00145,0.74877,42.8169,,,,,33.11258,44.37086,,,23.44544,45.94015,53.93187,,,,0.00912,0.01053,,,0,0,1,,,,,,,-0.15,,0.374,0.0,0.0,0.373,0.0,0.0,2004-06-18,1999-01-01,1999-01-01,2004-06-16,1999-01-01,1999-01-01,-0.22,0.27,,,,,3.0,2.0,0.0,0.0,0.0,0.0,-0.0,0.0,0.0,0.0,0.0,0.0,0.379,0.377,0.379,0.372,0.369,0.377,2004-06-18,2004-06-11,2004-06-01,2004-06-16,2004-06-08,2004-05-31,0.0,0.0,0.0,100.0,100.0,100.0,1999-01-01,1999-01-01,1999-01-01,1999-01-01,1999-01-01,1999-01-01,18000.0,12000.0,31000.0,-12.69,-11.48,-24.69,0.0,0.0,0.0,-0.011,100.0,100.0,0.0,0.0,0.0,-0.01352,100.0,100.0,0.0,0.0,0.0,100.0,100.0,100.0,83.444,66.887,66.887,33.113,16.556,25.373,0.0,0.0,0.0,100.0,100.0,100.0,1999-01-01,1999-01-01,1999-01-01,2004-06-03,1999-01-01,1999-01-01,0,0,0,1980,0,0,1999-01-01,1999-01-01,1999-01-01,1999-01-01,1999-01-01,1999-01-01,2004-06-18,2004-06-11,2004-06-07,2004-06-15,2004-06-08,2004-06-02,1999-01-01,1999-01-01,1999-01-01,1999-01-01,1999-01-01,1999-01-01,0,1,0,1,0,1,0,0,0,0,1,0,0,0,0,0,0,1,0,1,0,0,0,0,0,0,0,0,1,0,,,,,,,,,,Life.Empty,Life.Empty,Life.BullRetrace,Life.Bear,Life.BearRecovery,,
2004-06-24,0.37314,,,,,0.37869,0.39225,0.41023,0.4253,-0.03305,-0.0311,-0.03154,-0.02993,-0.04661,-0.04422,-0.01312,0.00117,-0.01429,0.37374,0.37922,-0.00547,-0.00699,-0.00662,0.00151,,,-0.04,0.54,-1.87,0.54,-1.89,6.34,-4.92,5.45,2.0,6.0,12.0,10.0,13.0,15.0,39.0,19.0,0.0,0.0,0.00109,-0.00145,0.74877,42.8169,,,,,33.11258,33.11258,,,13.22751,27.1064,53.80433,53.92323,,,0.00864,0.01017,,,0,0,1,,,,,,,-0.15,,0.374,0.0,0.0,0.373,0.0,0.0,2004-06-18,1999-01-01,1999-01-01,2004-06-16,1999-01-01,1999-01-01,-0.23,0.27,,,,,4.0,2.0,0.0,0.0,0.0,0.0,-0.0,0.0,0.0,0.0,0.0,0.0,0.379,0.377,0.379,0.372,0.369,0.377,2004-06-18,2004-06-11,2004-06-01,2004-06-16,2004-06-08,2004-05-31,0.0,0.0,0.0,100.0,100.0,100.0,1999-01-01,1999-01-01,1999-01-01,1999-01-01,1999-01-01,1999-01-01,12000.0,31000.0,56000.0,-11.48,-24.69,62.29,0.0,0.0,0.0,-0.011,100.0,100.0,0.0,0.0,0.0,-0.01352,100.0,100.0,0.0,0.0,0.0,100.0,100.0,100.0,83.444,66.887,66.887,33.113,16.556,25.373,0.0,0.0,0.0,100.0,100.0,100.0,1999-01-01,1999-01-01,1999-01-01,2004-06-03,1999-01-01,1999-01-01,0,0,0,1980,0,0,1999-01-01,1999-01-01,1999-01-01,1999-01-01,1999-01-01,1999-01-01,2004-06-18,2004-06-11,2004-06-07,2004-06-15,2004-06-08,2004-06-02,1999-01-01,1999-01-01,1999-01-01,1999-01-01,1999-01-01,1999-01-01,0,1,0,1,0,1,0,0,0,0,1,0,0,0,0,0,0,1,0,1,0,0,0,0,0,0,0,0,1,0,56000.0,,,,,,,,n2p,Life.Empty,Life.Empty,Life.BullRetrace,Life.Bear,Life.BearRecovery,,
2004-06-25,0.37319,,,,,0.37814,0.39143,0.40946,0.42477,-0.03333,-0.03142,-0.03132,-0.02982,-0.04663,-0.04435,-0.01292,0.0016,-0.01453,0.3734,0.37865,-0.00525,-0.00664,-0.00633,0.00139,,,-0.05,0.54,-1.87,0.54,-1.89,6.34,-4.92,5.45,1.0,6.0,12.0,10.0,13.0,15.0,39.0,19.0,0.0,0.0,0.00109,-0.00145,0.74877,42.8169,,,,,33.11258,33.11258,33.113,,24.19243,20.28846,53.659,53.7984,,,0.0082,0.00983,,,0,0,1,,,,,,,-0.15,,0.374,0.0,0.0,0.373,0.0,0.0,2004-06-18,1999-01-01,1999-01-01,2004-06-16,1999-01-01,1999-01-01,-0.22,0.27,,,,,5.0,2.0,0.0,0.0,0.0,0.0,-0.0,0.0,0.0,0.0,0.0,0.0,0.379,0.377,0.379,0.372,0.369,0.377,2004-06-18,2004-06-11,2004-06-01,2004-06-16,2004-06-08,2004-05-31,0.0,0.0,0.0,100.0,100.0,100.0,1999-01-01,1999-01-01,1999-01-01,1999-01-01,1999-01-01,1999-01-01,31000.0,56000.0,55000.0,-24.69,62.29,43.43,0.0,0.0,0.0,-0.011,100.0,100.0,0.0,0.0,0.0,-0.01352,100.0,100.0,0.0,0.0,0.0,100.0,100.0,100.0,83.444,66.887,66.887,33.113,33.113,16.556,0.0,0.0,0.0,100.0,100.0,100.0,1999-01-01,1999-01-01,1999-01-01,2004-06-03,1999-01-01,1999-01-01,0,0,0,1980,0,0,1999-01-01,1999-01-01,1999-01-01,1999-01-01,1999-01-01,1999-01-01,2004-06-18,2004-06-11,2004-06-07,2004-06-25,2004-06-15,2004-06-08,1999-01-01,1999-01-01,1999-01-01,1999-01-01,1999-01-01,1999-01-01,0,1,0,1,0,1,0,0,0,0,1,0,0,0,0,0,0,1,0,1,0,0,0,0,0,0,0,0,1,0,,,,,,,,n2p,,Life.Empty,Life.Empty,Life.BullRetrace,Life.Bear,Life.BearRecovery,,
2004-06-28,0.37337,0.373,,,,0.37763,0.39065,0.40871,0.42424,-0.03358,-0.03172,-0.03108,-0.02969,-0.04661,-0.04444,-0.01272,0.00203,-0.01476,0.37311,0.37812,-0.00501,-0.00631,-0.00604,0.0013,,,0.44,-1.87,0.54,-1.89,6.34,-4.92,5.45,-5.17,6.0,12.0,10.0,13.0,15.0,39.0,19.0,17.0,0.0,0.0,0.00109,-0.00091,1.19685,54.48029,,,,,49.75124,38.6588,,,50.912,29.44398,53.50338,53.65557,,,0.00833,0.00951,,,0,0,1,,,,,,,-0.15,,0.374,0.0,0.0,0.373,0.373,0.0,2004-06-18,1999-01-01,1999-01-01,2004-06-28,2004-06-16,1999-01-01,0.0,-0.27,0.27,,,,0.0,6.0,2.0,0.0,0.0,0.0,0.0,-0.0,0.0,0.0,0.0,0.0,0.379,0.377,0.379,0.372,0.369,0.377,2004-06-18,2004-06-11,2004-06-01,2004-06-16,2004-06-08,2004-05-31,0.0,0.0,0.0,100.0,100.0,100.0,1999-01-01,1999-01-01,1999-01-01,1999-01-01,1999-01-01,1999-01-01,56000.0,55000.0,167000.0,62.29,43.43,95.77,0.0,0.0,0.0,-0.011,100.0,100.0,0.0,0.0,0.0,-0.01352,100.0,100.0,0.0,0.0,0.0,100.0,100.0,100.0,83.444,66.887,66.887,33.113,33.113,16.556,0.0,0.0,0.0,100.0,100.0,100.0,1999-01-01,1999-01-01,1999-01-01,2004-06-03,1999-01-01,1999-01-01,0,0,0,1980,0,0,1999-01-01,1999-01-01,1999-01-01,1999-01-01,1999-01-01,1999-01-01,2004-06-18,2004-06-11,2004-06-07,2004-06-25,2004-06-15,2004-06-08,1999-01-01,1999-01-01,1999-01-01,1999-01-01,1999-01-01,1999-01-01,0,1,0,1,0,1,0,0,0,0,1,0,0,0,0,0,0,1,0,1,0,0,0,0,0,0,0,0,1,0,,167000.0,,,,,n2p,,p2p,Life.Empty,Life.Empty,Life.BullRetrace,Life.Bear,Life.BearRecovery,,
2004-06-30,0.37369,,,0.372,,0.37716,0.3899,0.40797,0.42371,-0.03381,-0.032,-0.03082,-0.02953,-0.04655,-0.04451,-0.01251,0.00247,-0.01498,0.37286,0.37763,-0.00477,-0.006,-0.00575,0.00124,,,0.35,-1.87,0.54,-1.89,6.34,-4.92,5.45,-5.17,4.0,12.0,10.0,13.0,15.0,39.0,19.0,17.0,0.0,0.0,0.00091,-0.00091,1.0,50.0,,,,,49.75124,44.20502,,,77.63158,50.912,53.34131,53.50123,,,0.00809,0.0092,,,0,0,1,,,,,,,-0.15,,0.374,0.0,0.0,0.373,0.373,0.0,2004-06-18,1999-01-01,1999-01-01,2004-06-28,2004-06-16,1999-01-01,0.18,-0.27,0.27,,,,1.0,6.0,2.0,0.0,0.0,0.0,0.0,-0.0,0.0,0.0,0.0,0.0,0.379,0.377,0.379,0.372,0.372,0.369,2004-06-18,2004-06-11,2004-06-01,2004-06-30,2004-06-16,2004-06-08,0.0,0.0,0.0,100.0,100.0,100.0,1999-01-01,1999-01-01,1999-01-01,1999-01-01,1999-01-01,1999-01-01,55000.0,167000.0,39000.0,43.43,95.77,-6.12,0.0,0.0,0.0,-0.011,100.0,100.0,0.0,0.0,0.0,-0.01352,100.0,100.0,0.0,0.0,0.0,100.0,100.0,100.0,83.444,66.887,66.887,33.113,33.113,16.556,0.0,0.0,0.0,100.0,100.0,100.0,1999-01-01,1999-01-01,1999-01-01,2004-06-03,1999-01-01,1999-01-01,0,0,0,1980,0,0,1999-01-01,1999-01-01,1999-01-01,1999-01-01,1999-01-01,1999-01-01,2004-06-18,2004-06-11,2004-06-07,2004-06-25,2004-06-15,2004-06-08,1999-01-01,1999-01-01,1999-01-01,1999-01-01,1999-01-01,1999-01-01,0,1,0,1,0,1,0,1,0,0,1,0,0,0,0,0,0,1,0,1,0,0,0,0,0,0,0,0,1,0,,,39000.0,,,n2p,,p2p,p2n,Life.Empty,Life.Empty,Life.BullRetrace,Life.Bear,Life.BearRecovery,,
2004-07-01,0.3741,,,,,0.37711,0.38938,0.40735,0.42324,-0.03386,-0.03226,-0.03024,-0.02936,-0.04613,-0.04455,-0.01229,0.0029,-0.01519,0.37344,0.37755,-0.00411,-0.00563,-0.00548,0.00151,,,0.24,-1.87,0.54,-1.89,6.34,-4.92,5.45,-5.17,3.0,12.0,10.0,13.0,15.0,39.0,19.0,17.0,0.0051,0.0,0.00127,-0.00091,1.40157,58.36066,,,,,75.12438,58.20896,,,100.0,76.18119,53.17173,53.33881,,,0.00824,0.00892,,,0,0,1,,,,,,,-0.15,,0.374,0.0,0.0,0.373,0.373,0.0,2004-06-18,1999-01-01,1999-01-01,2004-06-28,2004-06-16,1999-01-01,0.29,-0.27,0.27,,,,2.0,6.0,2.0,0.0,0.0,0.0,0.0,-0.0,0.0,0.0,0.0,0.0,0.379,0.377,0.379,0.372,0.372,0.369,2004-06-18,2004-06-11,2004-06-01,2004-06-30,2004-06-16,2004-06-08,0.0,0.0,0.0,100.0,100.0,100.0,1999-01-01,1999-01-01,1999-01-01,1999-01-01,1999-01-01,1999-01-01,167000.0,39000.0,39000.0,95.77,-6.12,-6.13,0.0,0.0,0.0,-0.011,100.0,100.0,0.0,0.0,0.0,-0.01352,100.0,100.0,0.0,0.0,0.0,100.0,100.0,100.0,83.444,66.887,66.887,33.113,33.113,16.556,0.0,0.0,0.0,100.0,100.0,100.0,1999-01-01,1999-01-01,1999-01-01,2004-06-03,1999-01-01,1999-01-01,0,0,0,1980,0,0,1999-01-01,1999-01-01,1999-01-01,1999-01-01,1999-01-01,1999-01-01,2004-06-18,2004-06-11,2004-06-07,2004-06-25,2004-06-15,2004-06-08,1999-01-01,1999-01-01,1999-01-01,1999-01-01,1999-01-01,1999-01-01,0,1,0,1,0,1,0,1,0,0,1,0,0,0,0,0,0,1,0,1,0,0,0,0,0,0,0,0,1,0,,,,,n2p,,p2p,p2n,,Life.Empty,Life.Empty,Life.BullRetrace,Life.Bear,Life.BearRecovery,,
2004-07-02,0.37444,,,,,0.37707,0.38888,0.40674,0.42278,-0.0339,-0.0325,-0.02967,-0.02917,-0.0457,-0.04456,-0.01206,0.00333,-0.01539,0.37392,0.37748,-0.00356,-0.00521,-0.00522,0.00165,,,0.15,-1.87,0.54,-1.89,6.34,-4.92,5.45,-5.17,2.0,12.0,10.0,13.0,15.0,39.0,19.0,17.0,0.0,0.0,0.00091,-0.00091,1.0,50.0,,,,,75.12438,66.66667,,,100.0,92.54386,52.992,53.16835,,,0.00819,0.00864,,,0,0,1,,,,,,,-0.15,,0.374,0.0,0.0,0.373,0.373,0.0,2004-06-18,1999-01-01,1999-01-01,2004-06-28,2004-06-16,1999-01-01,0.39,-0.27,0.27,,,,3.0,6.0,2.0,0.0,0.0,0.0,0.0,-0.0,0.0,0.0,0.0,0.0,0.379,0.377,0.379,0.372,0.372,0.369,2004-06-18,2004-06-11,2004-06-01,2004-06-30,2004-06-16,2004-06-08,0.0,0.0,0.0,100.0,100.0,100.0,1999-01-01,1999-01-01,1999-01-01,1999-01-01,1999-01-01,1999-01-01,39000.0,39000.0,44000.0,-6.12,-6.13,-50.2,0.0,0.0,0.0,-0.011,100.0,100.0,0.0,0.0,0.0,-0.01352,100.0,100.0,0.0,0.0,0.0,100.0,100.0,100.0,83.444,66.887,66.887,33.113,33.113,16.556,0.0,0.0,0.0,100.0,100.0,100.0,1999-01-01,1999-01-01,1999-01-01,2004-06-03,1999-01-01,1999-01-01,0,0,0,1980,0,0,1999-01-01,1999-01-01,1999-01-01,1999-01-01,1999-01-01,1999-01-01,2004-06-18,2004-06-11,2004-06-07,2004-06-25,2004-06-15,2004-06-08,1999-01-01,1999-01-01,1999-01-01,1999-01-01,1999-01-01,1999-01-01,0,1,0,1,0,1,0,1,0,0,1,0,0,0,0,0,0,1,0,1,0,0,0,0,0,0,0,0,1,0,,,,44000.0,,p2p,p2n,,n2n,Life.Empty,Life.Empty,Life.BullRetrace,Life.Bear,Life.BearRecovery,,
2004-07-06,0.3746,,0.375,,0.377,0.37704,0.3884,0.40615,0.42232,-0.03392,-0.03272,-0.02911,-0.02896,-0.04528,-0.04455,-0.01183,0.00376,-0.01559,0.37433,0.37741,-0.00308,-0.00479,-0.00497,0.0017,,,-1.76,0.54,-1.89,6.34,-4.92,5.45,-5.17,6.27,12.0,10.0,13.0,15.0,39.0,19.0,17.0,14.0,0.0,0.0,0.00091,-0.00054,1.67105,62.56158,44.37454,,,,75.12438,75.12438,,75.124,95.26515,98.42172,52.79999,52.98791,,,0.00796,0.00839,,,1,0,1,,,,,,,-0.15,,0.375,0.374,0.0,0.373,0.373,0.0,2004-07-06,2004-06-18,1999-01-01,2004-06-28,2004-06-16,1999-01-01,0.0,0.54,-0.27,0.27,,,0.0,4.0,6.0,2.0,0.0,0.0,0.0,0.0,-0.0,0.0,0.0,0.0,0.377,0.379,0.377,0.372,0.372,0.369,2004-07-06,2004-06-18,2004-06-11,2004-06-30,2004-06-16,2004-06-08,0.0,0.0,0.0,100.0,100.0,100.0,1999-01-01,1999-01-01,1999-01-01,1999-01-01,1999-01-01,1999-01-01,39000.0,44000.0,80200.0,-6.13,-50.2,33.77,0.0,0.0,0.0,-0.011,100.0,100.0,0.0,0.0,0.0,-0.01352,100.0,100.0,0.0,0.0,0.0,100.0,100.0,100.0,75.124,83.444,66.887,33.113,33.113,16.556,0.0,0.0,0.0,100.0,100.0,100.0,1999-01-01,1999-01-01,1999-01-01,2004-06-03,1999-01-01,1999-01-01,0,0,0,1980,0,0,1999-01-01,1999-01-01,1999-01-01,1999-01-01,1999-01-01,1999-01-01,2004-07-06,2004-06-18,2004-06-11,2004-06-25,2004-06-15,2004-06-08,1999-01-01,1999-01-01,1999-01-01,1999-01-01,1999-01-01,1999-01-01,0,1,0,1,1,0,0,1,0,0,1,0,0,0,0,0,0,0,0,1,0,0,0,0,0,0,0,0,1,0,80200.0,,,,p2p,p2n,,n2n,n2p,Life.Empty,Life.Empty,Life.BullRetrace,Life.Bear,Life.BearRecovery,,
2004-07-07,0.37449,,,0.374,,0.37681,0.38784,0.40551,0.42184,-0.034,-0.03291,-0.0287,-0.02873,-0.04503,-0.04451,-0.0116,0.00418,-0.01578,0.3743,0.37717,-0.00287,-0.0044,-0.00472,0.00153,,,-1.73,0.54,-1.89,6.34,-4.92,5.45,-5.17,6.27,11.0,10.0,13.0,15.0,39.0,19.0,17.0,14.0,-0.0,-0.0025,0.00091,-0.00072,1.25743,55.70175,44.56321,,,,62.68657,70.97844,62.687,,82.03764,92.43426,52.59467,52.79555,,,0.00776,0.00814,,,1,0,1,,,,,,,-0.15,,0.375,0.374,0.0,0.373,0.373,0.0,2004-07-06,2004-06-18,1999-01-01,2004-06-28,2004-06-16,1999-01-01,-0.14,0.54,-0.27,0.27,,,1.0,4.0,6.0,2.0,0.0,0.0,-0.0,0.0,-0.0,0.0,0.0,0.0,0.377,0.379,0.377,0.374,0.372,0.372,2004-07-06,2004-06-18,2004-06-11,2004-07-07,2004-06-30,2004-06-16,0.0,0.0,0.0,100.0,100.0,100.0,1999-01-01,1999-01-01,1999-01-01,1999-01-01,1999-01-01,1999-01-01,44000.0,80200.0,80000.0,-50.2,33.77,25.12,0.0,0.0,0.0,-0.011,100.0,100.0,0.0,0.0,0.0,-0.01352,100.0,100.0,0.0,0.0,0.0,100.0,100.0,100.0,75.124,83.444,66.887,62.687,33.113,33.113,0.0,0.0,0.0,100.0,100.0,100.0,1999-01-01,1999-01-01,1999-01-01,2004-06-03,1999-01-01,1999-01-01,0,0,0,1980,0,0,1999-01-01,1999-01-01,1999-01-01,1999-01-01,1999-01-01,1999-01-01,2004-07-06,2004-06-18,2004-06-11,2004-07-07,2004-06-25,2004-06-15,1999-01-01,1999-01-01,1999-01-01,1999-01-01,1999-01-01,1999-01-01,0,1,0,1,1,0,0,1,0,0,1,0,0,0,0,0,0,0,0,1,0,0,0,0,0,0,0,0,1,0,,,,,p2n,,n2n,n2p,,Life.Empty,Life.Empty,Life.BullRetrace,Life.Bear,Life.BearRecovery,,
2004-07-08,0.37411,,,,,0.3768,0.3874,0.40494,0.42139,-0.03399,-0.0331,-0.02814,-0.02849,-0.04459,-0.04446,-0.01136,0.0046,-0.01597,0.37465,0.37713,-0.00247,-0.00402,-0.00449,0.00154,,,-1.63,0.54,-1.89,6.34,-4.92,5.45,-5.17,6.27,10.0,10.0,13.0,15.0,39.0,19.0,17.0,14.0,0.0025,0.0,0.00109,-0.00072,1.50495,60.07905,44.72069,,,,75.12438,70.97844,,,75.42388,84.24222,52.37631,52.59032,,,0.00757,0.00791,,,1,0,1,,,,,,,-0.15,,0.375,0.374,0.0,0.373,0.373,0.0,2004-07-06,2004-06-18,1999-01-01,2004-06-28,2004-06-16,1999-01-01,-0.24,0.54,-0.27,0.27,,,2.0,4.0,6.0,2.0,0.0,0.0,-0.0,0.0,-0.0,0.0,0.0,0.0,0.377,0.379,0.377,0.374,0.372,0.372,2004-07-06,2004-06-18,2004-06-11,2004-07-07,2004-06-30,2004-06-16,0.0,0.0,0.0,100.0,100.0,100.0,1999-01-01,1999-01-01,1999-01-01,1999-01-01,1999-01-01,1999-01-01,80200.0,80000.0,27000.0,33.77,25.12,-8.33,0.0,0.0,0.0,-0.011,100.0,100.0,0.0,0.0,0.0,-0.01352,100.0,100.0,0.0,0.0,0.0,100.0,100.0,100.0,75.124,83.444,66.887,62.687,33.113,33.113,0.0,0.0,0.0,100.0,100.0,100.0,1999-01-01,1999-01-01,1999-01-01,2004-06-03,1999-01-01,1999-01-01,0,0,0,1980,0,0,1999-01-01,1999-01-01,1999-01-01,1999-01-01,1999-01-01,1999-01-01,2004-07-06,2004-06-18,2004-06-11,2004-07-07,2004-06-25,2004-06-15,1999-01-01,1999-01-01,1999-01-01,1999-01-01,1999-01-01,1999-01-01,0,1,0,1,1,0,0,1,0,0,1,0,0,0,0,0,0,0,0,1,0,0,0,0,0,0,0,0,1,0,,,,,,n2n,n2p,,,Life.Empty,Life.Empty,Life.BullRetrace,Life.Bear,Life.BearRecovery,,
2004-07-09,0.37346,,,,0.377,0.37678,0.38697,0.40438,0.42094,-0.03397,-0.03326,-0.0276,-0.02824,-0.04416,-0.04439,-0.01112,0.00502,-0.01614,0.37495,0.37709,-0.00214,-0.00364,-0.00428,0.0015,,,-1.46,0.54,-1.89,6.34,-4.92,5.45,-5.17,6.27,9.0,10.0,13.0,15.0,39.0,19.0,17.0,14.0,0.0,0.0,0.0009,-0.00072,1.24752,55.50661,44.84897,,,,75.12438,70.97844,,75.124,71.90791,76.45648,52.14605,52.37234,,,0.00721,0.00769,,,1,0,1,,,,,,,-0.15,,0.375,0.374,0.0,0.373,0.373,0.0,2004-07-06,2004-06-18,1999-01-01,2004-06-28,2004-06-16,1999-01-01,-0.41,0.54,-0.27,0.27,,,3.0,4.0,6.0,2.0,0.0,0.0,-0.0,0.0,-0.0,0.0,0.0,0.0,0.377,0.377,0.379,0.374,0.372,0.372,2004-07-09,2004-07-06,2004-06-18,2004-07-07,2004-06-30,2004-06-16,0.0,0.0,0.0,100.0,100.0,100.0,1999-01-01,1999-01-01,1999-01-01,1999-01-01,1999-01-01,1999-01-01,80000.0,27000.0,10500.0,25.12,-8.33,-37.23,0.0,0.0,0.0,-0.011,100.0,100.0,0.0,0.0,0.0,-0.01352,100.0,100.0,0.0,0.0,0.0,100.0,100.0,100.0,75.124,75.124,83.444,62.687,33.113,33.113,0.0,0.0,0.0,100.0,100.0,100.0,1999-01-01,1999-01-01,1999-01-01,2004-06-03,1999-01-01,1999-01-01,0,0,0,1980,0,0,1999-01-01,1999-01-01,1999-01-01,1999-01-01,1999-01-01,1999-01-01,2004-07-09,2004-07-06,2004-06-18,2004-07-07,2004-06-25,2004-06-15,1999-01-01,1999-01-01,1999-01-01,1999-01-01,1999-01-01,1999-01-01,0,1,0,1,1,0,0,1,0,0,1,0,0,0,0,0,1,0,0,1,0,0,0,0,0,0,0,0,1,0,,,,,n2n,n2p,,,,Life.Empty,Life.Empty,Life.BullRetrace,Life.Bear,Life.BearRecovery,,
2004-07-12,0.37263,,,,,0.37657,0.38647,0.40378,0.42048,-0.03401,-0.03341,-0.0272,-0.02799,-0.0439,-0.0443,-0.01089,0.00542,-0.01631,0.37482,0.37687,-0.00205,-0.00332,-0.00407,0.00128,,,-1.24,0.54,-1.89,6.34,-4.92,5.45,-5.17,6.27,8.0,10.0,13.0,15.0,39.0,19.0,17.0,14.0,-0.0,-0.0025,0.00054,-0.0009,0.60317,37.62376,44.95017,,,,71.59091,73.94656,,,68.63377,71.98852,51.90661,52.14299,,,0.00724,0.00748,,,1,0,1,,,,,,,-0.15,,0.375,0.374,0.0,0.373,0.373,0.0,2004-07-06,2004-06-18,1999-01-01,2004-06-28,2004-06-16,1999-01-01,-0.63,0.54,-0.27,0.27,,,4.0,4.0,6.0,2.0,0.0,0.0,-0.0,0.0,-0.0,0.0,0.0,0.0,0.377,0.377,0.379,0.374,0.372,0.372,2004-07-09,2004-07-06,2004-06-18,2004-07-07,2004-06-30,2004-06-16,0.0,0.0,0.0,100.0,100.0,100.0,1999-01-01,1999-01-01,1999-01-01,1999-01-01,1999-01-01,1999-01-01,27000.0,10500.0,95100.0,-8.33,-37.23,12.85,0.0,0.0,0.0,-0.011,100.0,100.0,0.0,0.0,0.0,-0.01352,100.0,100.0,0.0,0.0,0.0,100.0,100.0,100.0,75.124,75.124,83.444,62.687,33.113,33.113,0.0,0.0,0.0,100.0,100.0,100.0,1999-01-01,1999-01-01,1999-01-01,2004-06-03,1999-01-01,1999-01-01,0,0,0,1980,0,0,1999-01-01,1999-01-01,1999-01-01,1999-01-01,1999-01-01,1999-01-01,2004-07-09,2004-07-06,2004-06-18,2004-07-07,2004-06-25,2004-06-15,1999-01-01,1999-01-01,1999-01-01,1999-01-01,1999-01-01,1999-01-01,0,1,0,1,1,0,0,1,0,0,1,0,0,0,0,0,1,0,0,1,0,0,0,0,0,0,0,0,1,0,-95100.0,,,,n2p,,,,n2p,Life.Empty,Life.Empty,Life.BullRetrace,Life.Bear,Life.BearRecovery,,
2004-07-13,0.3717,,,,,0.37599,0.38578,0.40309,0.41996,-0.03418,-0.03354,-0.0271,-0.02772,-0.04397,-0.04419,-0.01065,0.00582,-0.01647,0.37393,0.37628,-0.00236,-0.00313,-0.00388,0.00077,,,-1.0,0.54,-1.89,6.34,-4.92,5.45,-5.17,6.27,7.0,10.0,13.0,15.0,39.0,19.0,17.0,14.0,-0.0,-0.0051,0.00054,-0.00109,0.5,33.33333,45.02629,,,,42.61364,63.10964,,,41.91419,60.81862,51.66133,51.90466,,,0.00708,0.00728,,,1,0,1,,,,,,,-0.15,,0.375,0.374,0.0,0.373,0.373,0.0,2004-07-06,2004-06-18,1999-01-01,2004-06-28,2004-06-16,1999-01-01,-0.88,0.54,-0.27,0.27,,,5.0,4.0,6.0,2.0,0.0,0.0,-0.0,0.0,-0.0,0.0,0.0,0.0,0.377,0.377,0.379,0.374,0.372,0.372,2004-07-09,2004-07-06,2004-06-18,2004-07-07,2004-06-30,2004-06-16,0.0,0.0,0.0,100.0,100.0,100.0,1999-01-01,1999-01-01,1999-01-01,1999-01-01,1999-01-01,1999-01-01,10500.0,95100.0,25000.0,-37.23,12.85,-1.51,0.0,0.0,0.0,-0.011,100.0,100.0,0.0,0.0,0.0,-0.01352,100.0,100.0,0.0,0.0,0.0,100.0,100.0,100.0,75.124,75.124,83.444,62.687,33.113,33.113,0.0,0.0,0.0,100.0,100.0,100.0,1999-01-01,1999-01-01,1999-01-01,2004-06-03,1999-01-01,1999-01-01,0,0,0,1980,0,0,1999-01-01,1999-01-01,1999-01-01,1999-01-01,1999-01-01,1999-01-01,2004-07-09,2004-07-06,2004-06-18,2004-07-07,2004-06-25,2004-06-15,1999-01-01,1999-01-01,1999-01-01,1999-01-01,1999-01-01,1999-01-01,0,1,0,1,1,0,0,1,0,0,1,0,0,0,0,0,1,0,0,1,0,0,0,0,0,0,0,0,1,0,,,,,,,,n2p,,Life.Empty,Life.Empty,Life.BullRetrace,Life.Bear,Life.BearRecovery,,
2004-07-14,0.37077,,,,,0.37545,0.38512,0.40242,0.41946,-0.03433,-0.03366,-0.02696,-0.02744,-0.044,-0.04408,-0.01041,0.00622,-0.01663,0.37317,0.37574,-0.00258,-0.00302,-0.00369,0.00044,,,-0.75,0.54,-1.89,6.34,-4.92,5.45,-5.17,6.27,6.0,10.0,13.0,15.0,39.0,19.0,17.0,14.0,0.0,0.0,0.00054,-0.00072,0.75248,42.93785,45.07929,,,,42.61364,52.27273,,,16.83168,42.45988,51.41483,51.66092,,,0.00658,0.00709,,,1,0,1,,,,,,,-0.15,,0.375,0.374,0.0,0.373,0.373,0.0,2004-07-06,2004-06-18,1999-01-01,2004-06-28,2004-06-16,1999-01-01,-1.13,0.54,-0.27,0.27,,,6.0,4.0,6.0,2.0,0.0,0.0,-0.0,0.0,-0.0,0.0,0.0,0.0,0.377,0.377,0.379,0.374,0.372,0.372,2004-07-09,2004-07-06,2004-06-18,2004-07-07,2004-06-30,2004-06-16,0.0,0.0,0.0,100.0,100.0,100.0,1999-01-01,1999-01-01,1999-01-01,1999-01-01,1999-01-01,1999-01-01,95100.0,25000.0,35700.0,12.85,-1.51,19.3,0.0,0.0,0.0,-0.011,100.0,100.0,0.0,0.0,0.0,-0.01352,100.0,100.0,0.0,0.0,0.0,100.0,100.0,100.0,75.124,75.124,83.444,62.687,33.113,33.113,0.0,0.0,0.0,100.0,100.0,100.0,1999-01-01,1999-01-01,1999-01-01,2004-06-03,1999-01-01,1999-01-01,0,0,0,1980,0,0,1999-01-01,1999-01-01,1999-01-01,1999-01-01,1999-01-01,1999-01-01,2004-07-09,2004-07-06,2004-06-18,2004-07-07,2004-06-25,2004-06-15,1999-01-01,1999-01-01,1999-01-01,1999-01-01,1999-01-01,1999-01-01,0,1,0,1,1,0,0,1,0,0,1,0,0,0,0,0,1,0,0,1,0,0,0,0,0,0,0,0,1,0,,,,,,,n2p,,,Life.Empty,Life.Empty,Life.BullRetrace,Life.Bear,Life.BearRecovery,,
2004-07-15,0.36994,,,,,0.37496,0.38449,0.40175,0.41895,-0.03446,-0.03377,-0.0268,-0.02717,-0.044,-0.04395,-0.01018,0.0066,-0.01678,0.37253,0.37524,-0.00272,-0.00296,-0.00352,0.00024,,,-0.52,0.54,-1.89,6.34,-4.92,5.45,-5.17,6.27,5.0,10.0,13.0,15.0,39.0,19.0,17.0,14.0,0.0,0.0,0.00054,-0.00072,0.75248,42.93785,45.11073,,,,42.61364,42.61364,,,0.0,19.58196,51.1725,51.41622,,,0.00629,0.00691,,,1,0,1,,,,,,,-0.15,,0.375,0.374,0.0,0.373,0.373,0.0,2004-07-06,2004-06-18,1999-01-01,2004-06-28,2004-06-16,1999-01-01,-1.35,0.54,-0.27,0.27,,,7.0,4.0,6.0,2.0,0.0,0.0,-0.0,0.0,-0.0,0.0,0.0,0.0,0.377,0.377,0.379,0.374,0.372,0.372,2004-07-09,2004-07-06,2004-06-18,2004-07-07,2004-06-30,2004-06-16,0.0,0.0,0.0,100.0,100.0,100.0,1999-01-01,1999-01-01,1999-01-01,1999-01-01,1999-01-01,1999-01-01,25000.0,35700.0,31700.0,-1.51,19.3,-40.69,0.0,0.0,0.0,-0.011,100.0,100.0,0.0,0.0,0.0,-0.01352,100.0,100.0,0.0,0.0,0.0,100.0,100.0,100.0,75.124,75.124,83.444,62.687,33.113,33.113,0.0,0.0,0.0,100.0,100.0,100.0,1999-01-01,1999-01-01,1999-01-01,2004-06-03,1999-01-01,1999-01-01,0,0,0,1980,0,0,1999-01-01,1999-01-01,1999-01-01,1999-01-01,1999-01-01,1999-01-01,2004-07-09,2004-07-06,2004-06-18,2004-07-07,2004-06-25,2004-06-15,1999-01-01,1999-01-01,1999-01-01,1999-01-01,1999-01-01,1999-01-01,0,1,0,1,1,0,0,1,0,0,1,0,0,0,0,0,1,0,0,1,0,0,0,0,0,0,0,0,1,0,,,31700.0,,,n2p,,,p2n,Life.Empty,Life.Empty,Life.BullRetrace,Life.Bear,Life.BearRecovery,,
2004-07-16,0.36926,,,,,0.3745,0.38388,0.4011,0.41846,-0.03457,-0.03386,-0.02661,-0.02688,-0.04396,-0.04381,-0.00995,0.00698,-0.01693,0.37198,0.37478,-0.0028,-0.00293,-0.00337,0.00013,,,-0.34,0.54,-1.89,6.34,-4.92,5.45,-5.17,6.27,4.0,10.0,13.0,15.0,39.0,19.0,17.0,14.0,0.0,0.0,0.00054,-0.00072,0.75248,42.93785,45.12224,,45.122,,42.61364,42.61364,,,0.0,5.61056,50.93998,51.17577,,,0.00584,0.00674,,,1,0,1,,,,,,,-0.15,,0.375,0.374,0.0,0.373,0.373,0.0,2004-07-06,2004-06-18,1999-01-01,2004-06-28,2004-06-16,1999-01-01,-1.53,0.54,-0.27,0.27,,,8.0,4.0,6.0,2.0,0.0,0.0,-0.0,0.0,-0.0,0.0,0.0,0.0,0.377,0.377,0.379,0.374,0.372,0.372,2004-07-09,2004-07-06,2004-06-18,2004-07-07,2004-06-30,2004-06-16,0.0,0.0,0.0,100.0,100.0,100.0,1999-01-01,1999-01-01,1999-01-01,1999-01-01,1999-01-01,1999-01-01,35700.0,31700.0,35000.0,19.3,-40.69,10.82,0.0,0.0,0.0,-0.011,100.0,100.0,0.0,0.0,0.0,-0.01352,100.0,100.0,0.0,0.0,0.0,100.0,100.0,100.0,75.124,75.124,83.444,62.687,33.113,33.113,45.122,0.0,0.0,100.0,100.0,100.0,1999-01-01,1999-01-01,1999-01-01,2004-06-03,1999-01-01,1999-01-01,0,0,0,1980,0,0,1999-01-01,1999-01-01,1999-01-01,1999-01-01,1999-01-01,1999-01-01,2004-07-09,2004-07-06,2004-06-18,2004-07-07,2004-06-25,2004-06-15,2004-07-16,1999-01-01,1999-01-01,1999-01-01,1999-01-01,1999-01-01,0,1,0,1,1,0,0,1,0,0,1,0,0,0,0,0,1,0,0,1,0,1,0,0,0,0,0,0,1,0,35000.0,,,,n2p,,,p2n,n2p,Life.Empty,Life.Empty,Life.BullRetrace,Life.Bear,Life.BearRecovery,,
2004-07-19,0.36874,,,0.366,,0.37388,0.3832,0.40042,0.41794,-0.03474,-0.03394,-0.02654,-0.0266,-0.04406,-0.04366,-0.00972,0.00734,-0.01706,0.37114,0.37417,-0.00303,-0.00295,-0.00322,-8e-05,,,-0.2,0.54,-1.89,6.34,-4.92,5.45,-5.17,6.27,3.0,10.0,13.0,15.0,39.0,19.0,17.0,14.0,-0.0,-0.0025,0.00054,-0.0009,0.60317,37.62376,45.11739,,,-7.49824,28.40909,37.87879,,,0.0,0.0,50.72253,50.945,,,0.0056,0.00658,,,1,0,1,,,,,,,-0.15,,0.375,0.374,0.0,0.373,0.373,0.0,2004-07-06,2004-06-18,1999-01-01,2004-06-28,2004-06-16,1999-01-01,-1.67,0.54,-0.27,0.27,,,9.0,4.0,6.0,2.0,0.0,0.0,-0.0,0.0,-0.0,0.0,0.0,0.0,0.377,0.377,0.379,0.366,0.374,0.372,2004-07-09,2004-07-06,2004-06-18,2004-07-19,2004-07-07,2004-06-30,0.0,0.0,0.0,100.0,100.0,100.0,1999-01-01,1999-01-01,1999-01-01,1999-01-01,1999-01-01,1999-01-01,31700.0,35000.0,18000.0,-40.69,10.82,-17.28,0.0,0.0,0.0,-0.011,100.0,100.0,0.0,0.0,0.0,-0.01352,100.0,100.0,0.0,0.0,0.0,100.0,100.0,100.0,75.124,75.124,83.444,62.687,33.113,33.113,45.122,0.0,0.0,100.0,100.0,100.0,1999-01-01,1999-01-01,1999-01-01,2004-06-03,1999-01-01,1999-01-01,0,0,0,1980,0,0,1999-01-01,1999-01-01,1999-01-01,1999-01-01,1999-01-01,1999-01-01,2004-07-09,2004-07-06,2004-06-18,2004-07-07,2004-06-25,2004-06-15,2004-07-16,1999-01-01,1999-01-01,1999-01-01,1999-01-01,1999-01-01,0,1,0,1,1,0,1,0,0,0,1,0,0,0,0,0,1,0,0,1,0,1,0,0,0,0,0,0,1,0,,,,,,,p2n,n2p,,Life.Empty,Life.Empty,Life.BullRetrace,Life.Bear,Life.BearRecovery,,
2004-07-20,0.36842,,,,,0.37351,0.38265,0.3998,0.41745,-0.03481,-0.03401,-0.02629,-0.02631,-0.04395,-0.04351,-0.0095,0.0077,-0.0172,0.37081,0.37379,-0.00297,-0.00295,-0.00308,-2e-05,,,-0.11,0.54,-1.89,6.34,-4.92,5.45,-5.17,6.27,2.0,10.0,13.0,15.0,39.0,19.0,17.0,14.0,0.0025,0.0,0.00072,-0.0009,0.80159,44.49339,45.10177,,,-0.62861,19.84127,30.288,,,16.66667,5.55556,50.52504,50.72918,,,0.00556,0.00642,,,1,0,1,,,,,,,-0.15,,0.375,0.374,0.0,0.373,0.373,0.0,2004-07-06,2004-06-18,1999-01-01,2004-06-28,2004-06-16,1999-01-01,-1.75,0.54,-0.27,0.27,,,10.0,4.0,6.0,2.0,0.0,0.0,-0.0,0.0,-0.0,0.0,0.0,0.0,0.377,0.377,0.379,0.366,0.374,0.372,2004-07-09,2004-07-06,2004-06-18,2004-07-19,2004-07-07,2004-06-30,0.0,0.0,0.0,100.0,100.0,100.0,1999-01-01,1999-01-01,1999-01-01,1999-01-01,1999-01-01,1999-01-01,35000.0,18000.0,21000.0,10.82,-17.28,-12.63,0.0,0.0,0.0,-0.011,100.0,100.0,0.0,0.0,0.0,-0.01352,100.0,100.0,0.0,0.0,0.0,100.0,100.0,100.0,75.124,75.124,83.444,62.687,33.113,33.113,45.122,0.0,0.0,100.0,100.0,100.0,1999-01-01,1999-01-01,1999-01-01,2004-06-03,1999-01-01,1999-01-01,0,0,0,1980,0,0,1999-01-01,1999-01-01,1999-01-01,1999-01-01,1999-01-01,1999-01-01,2004-07-09,2004-07-06,2004-06-18,2004-07-07,2004-06-25,2004-06-15,2004-07-16,1999-01-01,1999-01-01,1999-01-01,1999-01-01,1999-01-01,0,1,0,1,1,0,1,0,0,0,1,0,0,0,0,0,1,0,0,1,0,1,0,0,0,0,0,0,1,0,,,,,,p2n,n2p,,,Life.Empty,Life.Empty,Life.BullRetrace,Life.Bear,Life.BearRecovery,,
2004-07-21,0.36831,,,,0.369,0.37316,0.38211,0.39919,0.41697,-0.03486,-0.03407,-0.02603,-0.02602,-0.04381,-0.04334,-0.00928,0.00805,-0.01733,0.37053,0.37343,-0.0029,-0.00294,-0.00295,4e-05,,,-0.08,0.54,-1.89,6.34,-4.92,5.45,-5.17,6.27,1.0,10.0,13.0,15.0,39.0,19.0,17.0,14.0,0.0,0.0,0.00072,-0.0009,0.80159,44.49339,45.08108,,,-0.62861,19.84127,22.69721,,,33.33333,16.66667,50.35132,50.53296,,,0.00534,0.00628,,,1,0,1,,,,,,,-0.15,,0.375,0.374,0.0,0.373,0.373,0.0,2004-07-06,2004-06-18,1999-01-01,2004-06-28,2004-06-16,1999-01-01,-1.78,0.54,-0.27,0.27,,,11.0,4.0,6.0,2.0,0.0,0.0,-0.0,0.0,-0.0,0.0,0.0,0.0,0.369,0.377,0.377,0.366,0.374,0.372,2004-07-21,2004-07-09,2004-07-06,2004-07-19,2004-07-07,2004-06-30,0.0,0.0,0.0,100.0,100.0,100.0,1999-01-01,1999-01-01,1999-01-01,1999-01-01,1999-01-01,1999-01-01,18000.0,21000.0,13000.0,-17.28,-12.63,-29.73,0.0,0.0,0.0,-0.011,100.0,100.0,0.0,0.0,0.0,-0.01352,100.0,100.0,0.0,0.0,0.0,100.0,100.0,100.0,75.124,75.124,83.444,62.687,33.113,33.113,45.122,0.0,0.0,100.0,100.0,100.0,1999-01-01,1999-01-01,1999-01-01,2004-06-03,1999-01-01,1999-01-01,0,0,0,1980,0,0,1999-01-01,1999-01-01,1999-01-01,1999-01-01,1999-01-01,1999-01-01,2004-07-09,2004-07-06,2004-06-18,2004-07-07,2004-06-25,2004-06-15,2004-07-16,1999-01-01,1999-01-01,1999-01-01,1999-01-01,1999-01-01,0,1,0,1,1,0,1,0,0,0,1,0,0,0,0,0,1,0,0,1,0,1,0,0,0,0,0,0,1,0,,,,,p2n,n2p,,,,Life.Empty,Life.Empty,Life.BullRetrace,Life.Bear,Life.BearRecovery,,
2004-07-22,0.36838,0.368,,,,0.37265,0.3815,0.39854,0.41647,-0.03497,-0.03411,-0.02589,-0.02573,-0.04382,-0.04317,-0.00906,0.00839,-0.01745,0.36991,0.37292,-0.00301,-0.00295,-0.00284,-5e-05,,,0.44,-1.89,6.34,-4.92,5.45,-5.17,6.27,-3.08,10.0,13.0,15.0,39.0,19.0,17.0,14.0,27.0,-0.0,-0.0025,0.00036,-0.00108,0.33113,24.87562,45.06074,,,-20.24638,0.0,13.22751,,,33.33333,27.77778,50.20284,50.35973,,,0.00513,0.00614,,,1,0,1,,,,,,,-0.15,,0.375,0.374,0.0,0.368,0.373,0.373,2004-07-06,2004-06-18,1999-01-01,2004-07-22,2004-06-28,2004-06-16,0.0,-1.87,0.54,-0.27,0.27,,0.0,12.0,4.0,6.0,2.0,0.0,0.0,-0.0,0.0,-0.0,0.0,0.0,0.369,0.377,0.377,0.366,0.374,0.372,2004-07-21,2004-07-09,2004-07-06,2004-07-19,2004-07-07,2004-06-30,0.0,0.0,0.0,100.0,100.0,100.0,1999-01-01,1999-01-01,1999-01-01,1999-01-01,1999-01-01,1999-01-01,21000.0,13000.0,22000.0,-12.63,-29.73,7.69,0.0,0.0,0.0,-0.011,100.0,100.0,0.0,0.0,0.0,-0.01352,100.0,100.0,0.0,0.0,0.0,100.0,100.0,100.0,75.124,75.124,83.444,62.687,33.113,33.113,45.122,0.0,0.0,100.0,100.0,100.0,1999-01-01,1999-01-01,1999-01-01,2004-06-03,1999-01-01,1999-01-01,0,0,0,1980,0,0,1999-01-01,1999-01-01,1999-01-01,1999-01-01,1999-01-01,1999-01-01,2004-07-09,2004-07-06,2004-06-18,2004-07-07,2004-06-25,2004-06-15,2004-07-16,1999-01-01,1999-01-01,1999-01-01,1999-01-01,1999-01-01,0,1,1,0,1,0,1,0,0,0,1,0,0,0,0,0,1,0,0,1,0,1,0,0,0,0,0,0,1,0,,,,,n2p,,,,,Life.Empty,Life.Empty,Life.BullRetrace,Life.Bear,Life.BearRecovery,,
2004-07-23,0.36857,,,0.366,,0.37218,0.38091,0.39791,0.41597,-0.03506,-0.03415,-0.02573,-0.02543,-0.0438,-0.043,-0.00885,0.00872,-0.01757,0.36939,0.37244,-0.00306,-0.00297,-0.00272,-8e-05,,,0.39,-1.89,6.34,-4.92,5.45,-5.17,6.27,-3.08,9.0,13.0,15.0,39.0,19.0,17.0,14.0,27.0,0.0,0.0,0.00036,-0.00108,0.33113,24.87562,45.0463,,,-20.24638,0.0,6.61376,0.0,,16.66667,27.77778,50.07967,50.21128,,,0.00495,0.00601,,,1,0,1,,,,,,,-0.15,,0.375,0.374,0.0,0.368,0.373,0.373,2004-07-06,2004-06-18,1999-01-01,2004-07-22,2004-06-28,2004-06-16,0.15,-1.87,0.54,-0.27,0.27,,1.0,12.0,4.0,6.0,2.0,0.0,0.0,-0.0,0.0,-0.0,0.0,0.0,0.369,0.377,0.377,0.366,0.366,0.374,2004-07-21,2004-07-09,2004-07-06,2004-07-23,2004-07-19,2004-07-07,0.0,0.0,0.0,100.0,100.0,100.0,1999-01-01,1999-01-01,1999-01-01,1999-01-01,1999-01-01,1999-01-01,13000.0,22000.0,24000.0,-29.73,7.69,5.36,0.0,0.0,0.0,-0.011,100.0,100.0,0.0,0.0,0.0,-0.01352,100.0,100.0,0.0,0.0,0.0,100.0,100.0,100.0,75.124,75.124,83.444,0.0,62.687,33.113,45.122,0.0,0.0,100.0,100.0,100.0,1999-01-01,1999-01-01,1999-01-01,2004-06-03,1999-01-01,1999-01-01,0,0,0,1980,0,0,1999-01-01,1999-01-01,1999-01-01,1999-01-01,1999-01-01,1999-01-01,2004-07-09,2004-07-06,2004-06-18,2004-07-23,2004-07-07,2004-06-25,2004-07-16,1999-01-01,1999-01-01,1999-01-01,1999-01-01,1999-01-01,0,1,1,0,1,0,1,0,0,0,1,0,0,0,0,0,1,0,1,0,0,1,0,0,0,0,0,0,1,0,,,,,,,,,,Life.Empty,Life.Empty,Life.BullRetrace,Life.Bear,Life.BearRecovery,,
2004-07-26,0.36887,,,,0.372,0.37212,0.38054,0.39738,0.41553,-0.03499,-0.03418,-0.02526,-0.02514,-0.04341,-0.04282,-0.00864,0.00904,-0.01768,0.36971,0.37237,-0.00266,-0.00291,-0.00262,0.00025,,,0.31,-1.89,6.34,-4.92,5.45,-5.17,6.27,-3.08,8.0,13.0,15.0,39.0,19.0,17.0,14.0,27.0,0.005,0.0,0.00071,-0.00108,0.66225,39.84064,45.04285,45.043,,-5.28136,49.50495,16.50165,,49.505,33.33333,27.77778,49.98037,50.08763,,,0.00495,0.00588,,,1,0,1,,,,,,,-0.15,,0.375,0.374,0.0,0.368,0.373,0.373,2004-07-06,2004-06-18,1999-01-01,2004-07-22,2004-06-28,2004-06-16,0.24,-1.87,0.54,-0.27,0.27,,2.0,12.0,4.0,6.0,2.0,0.0,0.0,-0.0,0.0,-0.0,0.0,0.0,0.372,0.369,0.377,0.366,0.366,0.374,2004-07-26,2004-07-21,2004-07-09,2004-07-23,2004-07-19,2004-07-07,0.0,0.0,0.0,100.0,100.0,100.0,1999-01-01,1999-01-01,1999-01-01,1999-01-01,1999-01-01,1999-01-01,22000.0,24000.0,45000.0,7.69,5.36,54.24,0.0,0.0,0.0,-0.011,100.0,100.0,0.0,0.0,0.0,-0.01352,100.0,100.0,0.0,0.0,0.0,100.0,100.0,100.0,49.505,75.124,75.124,0.0,62.687,33.113,45.122,0.0,0.0,45.043,100.0,100.0,1999-01-01,1999-01-01,1999-01-01,2004-06-03,1999-01-01,1999-01-01,0,0,0,1980,0,0,1999-01-01,1999-01-01,1999-01-01,1999-01-01,1999-01-01,1999-01-01,2004-07-26,2004-07-09,2004-07-06,2004-07-23,2004-07-07,2004-06-25,2004-07-16,1999-01-01,1999-01-01,2004-07-26,1999-01-01,1999-01-01,0,1,1,0,0,0,1,0,0,0,1,0,0,0,0,0,1,0,1,0,0,1,1,0,0,0,0,0,1,0,,45000.0,,,,,,,p2p,Life.Empty,Life.Empty,Life.BullRetrace,Life.Bear,Life.BearRecovery,,
2004-07-27,0.36923,,,0.366,,0.37169,0.37999,0.39677,0.41504,-0.03505,-0.03419,-0.02508,-0.02484,-0.04335,-0.04263,-0.00843,0.00935,-0.01778,0.36922,0.37194,-0.00272,-0.00287,-0.00252,0.00015,,,0.21,-1.89,6.34,-4.92,5.45,-5.17,6.27,-3.08,7.0,13.0,15.0,39.0,19.0,17.0,14.0,27.0,-0.0,-0.005,0.00071,-0.00126,0.56818,36.23188,45.05495,,,-8.81112,0.0,16.50165,0.0,,33.33333,27.77778,49.90208,49.98737,,,0.00495,0.00577,,,1,1,1,,,,,,,-0.15,,0.375,0.374,0.0,0.368,0.373,0.373,2004-07-06,2004-06-18,1999-01-01,2004-07-22,2004-06-28,2004-06-16,0.33,-1.87,0.54,-0.27,0.27,,3.0,12.0,4.0,6.0,2.0,0.0,0.0,-0.0,0.0,-0.0,0.0,0.0,0.372,0.369,0.377,0.366,0.366,0.366,2004-07-26,2004-07-21,2004-07-09,2004-07-27,2004-07-23,2004-07-19,0.0,0.0,0.0,100.0,100.0,100.0,1999-01-01,1999-01-01,1999-01-01,1999-01-01,1999-01-01,1999-01-01,24000.0,45000.0,43900.0,5.36,54.24,24.07,0.0,0.0,0.0,-0.011,100.0,100.0,0.0,0.0,0.0,-0.01352,100.0,100.0,0.0,0.0,0.0,100.0,100.0,100.0,49.505,75.124,75.124,0.0,0.0,62.687,45.122,0.0,0.0,45.043,100.0,100.0,1999-01-01,1999-01-01,1999-01-01,2004-06-03,1999-01-01,1999-01-01,0,0,0,1980,0,0,1999-01-01,1999-01-01,1999-01-01,1999-01-01,1999-01-01,1999-01-01,2004-07-26,2004-07-09,2004-07-06,2004-07-27,2004-07-23,2004-07-07,2004-07-16,1999-01-01,1999-01-01,2004-07-26,1999-01-01,1999-01-01,0,1,1,0,0,0,0,0,0,0,1,0,0,0,0,0,1,0,1,0,0,1,1,0,0,0,0,0,1,0,,,,,,,,p2p,,Life.Empty,Life.Empty,Life.BullRetrace,Life.Bear,Life.BearRecovery,,
2004-07-28,0.36958,,,,,0.37148,0.37956,0.39622,0.41458,-0.03502,-0.0342,-0.02474,-0.02455,-0.0431,-0.04243,-0.00823,0.00965,-0.01789,0.36918,0.37172,-0.00254,-0.00281,-0.00242,0.00027,,,0.11,-1.89,6.34,-4.92,5.45,-5.17,6.27,-3.08,6.0,13.0,15.0,39.0,19.0,17.0,14.0,27.0,0.0025,0.0,0.00071,-0.00126,0.56818,36.23188,45.08635,,,-8.81112,24.75248,24.75248,,,50.0,38.88889,49.84147,49.90798,,,0.00478,0.00566,,,1,0,1,,,,,,,-0.15,,0.375,0.374,0.0,0.368,0.373,0.373,2004-07-06,2004-06-18,1999-01-01,2004-07-22,2004-06-28,2004-06-16,0.43,-1.87,0.54,-0.27,0.27,,4.0,12.0,4.0,6.0,2.0,0.0,0.0,-0.0,0.0,-0.0,0.0,0.0,0.372,0.369,0.377,0.366,0.366,0.366,2004-07-26,2004-07-21,2004-07-09,2004-07-27,2004-07-23,2004-07-19,0.0,0.0,0.0,100.0,100.0,100.0,1999-01-01,1999-01-01,1999-01-01,1999-01-01,1999-01-01,1999-01-01,45000.0,43900.0,16000.0,54.24,24.07,-7.09,0.0,0.0,0.0,-0.011,100.0,100.0,0.0,0.0,0.0,-0.01352,100.0,100.0,0.0,0.0,0.0,100.0,100.0,100.0,49.505,75.124,75.124,0.0,0.0,62.687,45.122,0.0,0.0,45.043,100.0,100.0,1999-01-01,1999-01-01,1999-01-01,2004-06-03,1999-01-01,1999-01-01,0,0,0,1980,0,0,1999-01-01,1999-01-01,1999-01-01,1999-01-01,1999-01-01,1999-01-01,2004-07-26,2004-07-09,2004-07-06,2004-07-27,2004-07-23,2004-07-07,2004-07-16,1999-01-01,1999-01-01,2004-07-26,1999-01-01,1999-01-01,0,1,1,0,0,0,0,0,0,0,1,0,0,0,0,0,1,0,1,0,0,1,1,0,0,0,0,0,1,0,,,,,,,p2p,,,Life.Empty,Life.Empty,Life.BullRetrace,Life.Bear,Life.BearRecovery,,
2004-07-29,0.36989,,,,,0.37149,0.37924,0.39573,0.41416,-0.03491,-0.0342,-0.02425,-0.02425,-0.04267,-0.04223,-0.00803,0.00995,-0.01798,0.36954,0.3717,-0.00216,-0.00268,-0.00233,0.00051,,,0.03,-1.89,6.34,-4.92,5.45,-5.17,6.27,-3.08,5.0,13.0,15.0,39.0,19.0,17.0,14.0,27.0,0.0025,0.0,0.00089,-0.00126,0.71023,41.52824,45.14028,,,-3.51476,65.78947,30.18065,,,50.0,44.44444,49.79568,49.84641,,,0.00479,0.00556,,,1,0,1,,,,,,,-0.15,,0.375,0.374,0.0,0.368,0.373,0.373,2004-07-06,2004-06-18,1999-01-01,2004-07-22,2004-06-28,2004-06-16,0.51,-1.87,0.54,-0.27,0.27,,5.0,12.0,4.0,6.0,2.0,0.0,0.0,-0.0,0.0,-0.0,0.0,0.0,0.372,0.369,0.377,0.366,0.366,0.366,2004-07-26,2004-07-21,2004-07-09,2004-07-27,2004-07-23,2004-07-19,0.0,0.0,0.0,100.0,100.0,100.0,1999-01-01,1999-01-01,1999-01-01,1999-01-01,1999-01-01,1999-01-01,43900.0,16000.0,24000.0,24.07,-7.09,-20.02,0.0,0.0,0.0,-0.011,100.0,100.0,0.0,0.0,0.0,-0.01352,100.0,100.0,0.0,0.0,0.0,100.0,100.0,100.0,49.505,75.124,75.124,0.0,0.0,62.687,45.122,0.0,0.0,45.043,100.0,100.0,1999-01-01,1999-01-01,1999-01-01,2004-06-03,1999-01-01,1999-01-01,0,0,0,1980,0,0,1999-01-01,1999-01-01,1999-01-01,1999-01-01,1999-01-01,1999-01-01,2004-07-26,2004-07-09,2004-07-06,2004-07-27,2004-07-23,2004-07-07,2004-07-16,1999-01-01,1999-01-01,2004-07-26,1999-01-01,1999-01-01,0,1,1,0,0,0,0,0,0,0,1,0,0,0,0,0,1,0,1,0,0,1,1,0,0,0,0,0,1,0,,,,,,p2p,,,,Life.Empty,Life.Empty,Life.BullRetrace,Life.Bear,Life.BearRecovery,,
2004-07-30,0.37009,,,,,0.37149,0.37894,0.39525,0.41373,-0.03479,-0.03418,-0.02377,-0.02394,-0.04224,-0.04202,-0.00783,0.01024,-0.01807,0.36984,0.37169,-0.00185,-0.00251,-0.00224,0.00066,,,-0.02,-1.89,6.34,-4.92,5.45,-5.17,6.27,-3.08,4.0,13.0,15.0,39.0,19.0,17.0,14.0,27.0,0.0,0.0,0.00089,-0.00108,0.82781,45.28986,45.22016,,,0.24686,100.0,63.51398,,,83.33333,61.11111,49.76259,49.79991,,,0.00481,0.00548,,,1,1,1,,,,,,,-0.15,,0.375,0.374,0.0,0.368,0.373,0.373,2004-07-06,2004-06-18,1999-01-01,2004-07-22,2004-06-28,2004-06-16,0.57,-1.87,0.54,-0.27,0.27,,6.0,12.0,4.0,6.0,2.0,0.0,0.0,-0.0,0.0,-0.0,0.0,0.0,0.372,0.369,0.377,0.366,0.366,0.366,2004-07-26,2004-07-21,2004-07-09,2004-07-27,2004-07-23,2004-07-19,0.0,0.0,0.0,100.0,100.0,100.0,1999-01-01,1999-01-01,1999-01-01,1999-01-01,1999-01-01,1999-01-01,16000.0,24000.0,20500.0,-7.09,-20.02,-27.89,0.0,0.0,0.0,-0.011,100.0,100.0,0.0,0.0,0.0,-0.01352,100.0,100.0,0.0,0.0,0.0,100.0,100.0,100.0,49.505,75.124,75.124,0.0,0.0,62.687,45.122,0.0,0.0,45.043,100.0,100.0,1999-01-01,1999-01-01,1999-01-01,2004-06-03,1999-01-01,1999-01-01,0,0,0,1980,0,0,1999-01-01,1999-01-01,1999-01-01,1999-01-01,1999-01-01,1999-01-01,2004-07-26,2004-07-09,2004-07-06,2004-07-27,2004-07-23,2004-07-07,2004-07-16,1999-01-01,1999-01-01,2004-07-26,1999-01-01,1999-01-01,0,1,1,0,0,0,0,0,0,0,1,0,0,0,0,0,1,0,1,0,0,1,1,0,0,0,0,0,1,0,,,,,p2p,,,,,Life.Empty,Life.Empty,Life.BullRetrace,Life.Bear,Life.BearRecovery,,
2004-08-02,0.37019,,,,,0.37149,0.37865,0.39478,0.41331,-0.03466,-0.03416,-0.02329,-0.02364,-0.04182,-0.04179,-0.00764,0.01052,-0.01816,0.3701,0.37167,-0.00158,-0.00232,-0.00215,0.00075,,,-0.05,-1.89,6.34,-4.92,5.45,-5.17,6.27,-3.08,3.0,13.0,15.0,39.0,19.0,17.0,14.0,27.0,0.0,0.0,0.00089,-0.00071,1.25,55.55556,45.32904,,,10.51256,100.0,88.59649,,,100.0,77.77778,49.73969,49.76598,,,0.00482,0.0054,,,1,1,1,,,,,,,-0.15,,0.375,0.374,0.0,0.368,0.373,0.373,2004-07-06,2004-06-18,1999-01-01,2004-07-22,2004-06-28,2004-06-16,0.6,-1.87,0.54,-0.27,0.27,,7.0,12.0,4.0,6.0,2.0,0.0,0.0,-0.0,0.0,-0.0,0.0,0.0,0.372,0.369,0.377,0.366,0.366,0.366,2004-07-26,2004-07-21,2004-07-09,2004-07-27,2004-07-23,2004-07-19,0.0,0.0,0.0,100.0,100.0,100.0,1999-01-01,1999-01-01,1999-01-01,1999-01-01,1999-01-01,1999-01-01,24000.0,20500.0,28500.0,-20.02,-27.89,20.66,0.0,0.0,0.0,-0.011,100.0,100.0,0.0,0.0,0.0,-0.01352,100.0,100.0,0.0,0.0,0.0,100.0,100.0,100.0,49.505,75.124,75.124,0.0,0.0,62.687,45.122,0.0,0.0,45.043,100.0,100.0,1999-01-01,1999-01-01,1999-01-01,2004-06-03,1999-01-01,1999-01-01,0,0,0,1980,0,0,1999-01-01,1999-01-01,1999-01-01,1999-01-01,1999-01-01,1999-01-01,2004-07-26,2004-07-09,2004-07-06,2004-07-27,2004-07-23,2004-07-07,2004-07-16,1999-01-01,1999-01-01,2004-07-26,1999-01-01,1999-01-01,0,1,1,0,0,0,0,0,0,0,1,0,0,0,0,0,1,0,1,0,0,1,1,0,0,0,0,0,1,0,28500.0,,,,,,,,n2p,Life.Empty,Life.Empty,Life.BullRetrace,Life.Bear,Life.BearRecovery,,
2004-08-03,0.37016,,,,,0.37149,0.37837,0.39432,0.41289,-0.03453,-0.03412,-0.02283,-0.02333,-0.04141,-0.04156,-0.00744,0.01079,-0.01824,0.37031,0.37166,-0.00135,-0.00213,-0.00205,0.00078,,,-0.04,-1.89,6.34,-4.92,5.45,-5.17,6.27,-3.08,2.0,13.0,15.0,39.0,19.0,17.0,14.0,27.0,0.0,0.0,0.00089,-0.00071,1.25,55.55556,45.46835,,,10.51256,100.0,100.0,,,100.0,94.44444,49.72317,49.74181,,,0.00484,0.00533,,,1,1,1,,,,,,,-0.15,,0.375,0.374,0.0,0.368,0.373,0.373,2004-07-06,2004-06-18,1999-01-01,2004-07-22,2004-06-28,2004-06-16,0.59,-1.87,0.54,-0.27,0.27,,8.0,12.0,4.0,6.0,2.0,0.0,0.0,-0.0,0.0,-0.0,0.0,0.0,0.372,0.369,0.377,0.366,0.366,0.366,2004-07-26,2004-07-21,2004-07-09,2004-07-27,2004-07-23,2004-07-19,0.0,0.0,0.0,100.0,100.0,100.0,1999-01-01,1999-01-01,1999-01-01,1999-01-01,1999-01-01,1999-01-01,20500.0,28500.0,20000.0,-27.89,20.66,-5.48,0.0,0.0,0.0,-0.011,100.0,100.0,0.0,0.0,0.0,-0.01352,100.0,100.0,0.0,0.0,0.0,100.0,100.0,100.0,49.505,75.124,75.124,0.0,0.0,62.687,45.122,0.0,0.0,45.043,100.0,100.0,1999-01-01,1999-01-01,1999-01-01,2004-06-03,1999-01-01,1999-01-01,0,0,0,1980,0,0,1999-01-01,1999-01-01,1999-01-01,1999-01-01,1999-01-01,1999-01-01,2004-07-26,2004-07-09,2004-07-06,2004-07-27,2004-07-23,2004-07-07,2004-07-16,1999-01-01,1999-01-01,2004-07-26,1999-01-01,1999-01-01,0,1,1,0,0,0,0,0,0,0,1,0,0,0,0,0,1,0,1,0,0,1,1,0,0,0,0,0,1,0,,,,,,,,n2p,,Life.Empty,Life.Empty,Life.BullRetrace,Life.Bear,Life.BearRecovery,,
2004-08-04,0.37001,,,,0.372,0.37149,0.3781,0.39387,0.41248,-0.03438,-0.03407,-0.02238,-0.02302,-0.04099,-0.04132,-0.00725,0.01106,-0.01831,0.3705,0.37165,-0.00115,-0.00193,-0.00196,0.00078,,,-0.0,-1.89,6.34,-4.92,5.45,-5.17,6.27,-3.08,1.0,13.0,15.0,39.0,19.0,17.0,14.0,27.0,0.0,0.0,0.00089,-0.00071,1.25,55.55556,45.63885,,,10.51256,100.0,100.0,,100.0,100.0,100.0,49.70782,49.72356,,,0.00485,0.00526,,,1,1,1,,,,,,,-0.15,,0.375,0.374,0.0,0.368,0.373,0.373,2004-07-06,2004-06-18,1999-01-01,2004-07-22,2004-06-28,2004-06-16,0.55,-1.87,0.54,-0.27,0.27,,9.0,12.0,4.0,6.0,2.0,0.0,0.0,-0.0,0.0,-0.0,0.0,0.0,0.372,0.372,0.369,0.366,0.366,0.366,2004-08-04,2004-07-26,2004-07-21,2004-07-27,2004-07-23,2004-07-19,0.0,0.0,0.0,100.0,100.0,100.0,1999-01-01,1999-01-01,1999-01-01,1999-01-01,1999-01-01,1999-01-01,28500.0,20000.0,20000.0,20.66,-5.48,-0.72,0.0,0.0,0.0,-0.011,100.0,100.0,0.0,0.0,0.0,-0.01352,100.0,100.0,0.0,0.0,0.0,100.0,100.0,100.0,100.0,49.505,75.124,0.0,0.0,62.687,45.122,0.0,0.0,45.043,100.0,100.0,1999-01-01,1999-01-01,1999-01-01,2004-06-03,1999-01-01,1999-01-01,0,0,0,1980,0,0,1999-01-01,1999-01-01,1999-01-01,1999-01-01,1999-01-01,1999-01-01,2004-08-04,2004-07-26,2004-07-09,2004-07-27,2004-07-23,2004-07-07,2004-07-16,1999-01-01,1999-01-01,2004-07-26,1999-01-01,1999-01-01,0,1,1,0,0,1,0,0,0,0,1,0,0,0,0,0,0,1,1,0,0,1,1,0,0,0,0,0,1,0,,,,,,,n2p,,,Life.Empty,Life.Empty,Life.BullRetrace,Life.Bear,Life.BearRecovery,,
2004-08-05,0.36975,,0.37,0.366,,0.37111,0.37764,0.39333,0.41203,-0.03438,-0.03401,-0.02222,-0.0227,-0.04092,-0.04107,-0.00706,0.01132,-0.01838,0.36988,0.37127,-0.00139,-0.00182,-0.00186,0.00044,,,-1.82,6.34,-4.92,5.45,-5.17,6.27,-3.08,2.91,13.0,15.0,39.0,19.0,17.0,14.0,27.0,16.0,-0.0,-0.005,0.00089,-0.00107,0.83333,45.45455,45.84133,,,0.41155,0.0,66.66667,0.0,,66.66667,88.88889,49.6877,49.70623,,,0.00486,0.00521,,,1,1,1,,,,,,,-0.15,,0.37,0.375,0.374,0.368,0.373,0.373,2004-08-05,2004-07-06,2004-06-18,2004-07-22,2004-06-28,2004-06-16,0.0,0.54,-1.87,0.54,-0.27,0.27,0.0,10.0,12.0,4.0,6.0,2.0,0.0,0.0,-0.0,0.0,-0.0,0.0,0.372,0.372,0.369,0.366,0.366,0.366,2004-08-04,2004-07-26,2004-07-21,2004-08-05,2004-07-27,2004-07-23,0.0,0.0,0.0,100.0,100.0,100.0,1999-01-01,1999-01-01,1999-01-01,1999-01-01,1999-01-01,1999-01-01,20000.0,20000.0,6400.0,-5.48,-0.72,-32.26,0.0,0.0,0.0,-0.011,100.0,100.0,0.0,0.0,0.0,-0.01352,100.0,100.0,0.0,0.0,0.0,100.0,100.0,100.0,100.0,49.505,75.124,0.0,0.0,0.0,45.122,0.0,0.0,45.043,100.0,100.0,1999-01-01,1999-01-01,1999-01-01,2004-06-03,1999-01-01,1999-01-01,0,0,0,1980,0,0,1999-01-01,1999-01-01,1999-01-01,1999-01-01,1999-01-01,1999-01-01,2004-08-04,2004-07-26,2004-07-09,2004-08-05,2004-07-27,2004-07-23,2004-07-16,1999-01-01,1999-01-01,2004-07-26,1999-01-01,1999-01-01,1,0,1,0,0,1,0,0,0,0,1,0,0,0,0,0,0,1,0,0,0,1,1,0,0,0,0,0,1,0,,,,,,n2p,,,,Life.Empty,Life.Empty,Life.BullRetrace,Life.Bear,Life.BearRecovery,,
2004-08-06,0.36939,,,,0.372,0.37114,0.3774,0.39289,0.41162,-0.03422,-0.03394,-0.02176,-0.02237,-0.04049,-0.04081,-0.00687,0.01157,-0.01844,0.37013,0.37129,-0.00116,-0.00169,-0.00176,0.00054,,,-1.73,6.34,-4.92,5.45,-5.17,6.27,-3.08,2.91,12.0,15.0,39.0,19.0,17.0,14.0,27.0,16.0,0.005,0.0,0.00125,-0.00089,1.4,58.33333,46.07555,,,13.29033,100.0,66.66667,,100.0,66.66667,77.77778,49.65734,49.68428,,,0.00487,0.00517,,,1,1,1,,,,,,,-0.15,,0.37,0.375,0.374,0.368,0.373,0.373,2004-08-05,2004-07-06,2004-06-18,2004-07-22,2004-06-28,2004-06-16,-0.16,0.54,-1.87,0.54,-0.27,0.27,1.0,10.0,12.0,4.0,6.0,2.0,-0.0,0.0,-0.0,0.0,-0.0,0.0,0.372,0.372,0.372,0.366,0.366,0.366,2004-08-06,2004-08-04,2004-07-26,2004-08-05,2004-07-27,2004-07-23,0.0,0.0,0.0,100.0,100.0,100.0,1999-01-01,1999-01-01,1999-01-01,1999-01-01,1999-01-01,1999-01-01,20000.0,6400.0,44000.0,-0.72,-32.26,51.72,0.0,0.0,0.0,-0.011,100.0,100.0,0.0,0.0,0.0,-0.01352,100.0,100.0,0.0,0.0,0.0,100.0,100.0,100.0,100.0,100.0,49.505,0.0,0.0,0.0,45.122,0.0,0.0,45.043,100.0,100.0,1999-01-01,1999-01-01,1999-01-01,2004-06-03,1999-01-01,1999-01-01,0,0,0,1980,0,0,1999-01-01,1999-01-01,1999-01-01,1999-01-01,1999-01-01,1999-01-01,2004-08-06,2004-08-04,2004-07-26,2004-08-05,2004-07-27,2004-07-23,2004-07-16,1999-01-01,1999-01-01,2004-07-26,1999-01-01,1999-01-01,1,0,1,0,0,0,0,0,0,0,1,0,0,0,0,0,0,1,0,0,0,1,1,0,0,0,0,0,1,0,44000.0,,,,n2p,,,,n2p,Life.Empty,Life.Empty,Life.BullRetrace,Life.Bear,Life.BearRecovery,,
2004-08-09,0.36894,,,0.366,,0.37078,0.37697,0.39237,0.41117,-0.0342,-0.03386,-0.02159,-0.02204,-0.04039,-0.04054,-0.00667,0.01182,-0.01849,0.36957,0.37093,-0.00136,-0.00162,-0.00165,0.00027,,,-1.61,6.34,-4.92,5.45,-5.17,6.27,-3.08,2.91,11.0,15.0,39.0,19.0,17.0,14.0,27.0,16.0,-0.0,-0.005,0.00107,-0.00125,0.85714,46.15385,46.33973,,,1.11085,0.0,33.33333,0.0,,33.33333,55.55556,49.61184,49.65229,,,0.00488,0.00514,,,1,1,1,,,,,,,-0.15,,0.37,0.375,0.374,0.368,0.373,0.373,2004-08-05,2004-07-06,2004-06-18,2004-07-22,2004-06-28,2004-06-16,-0.29,0.54,-1.87,0.54,-0.27,0.27,2.0,10.0,12.0,4.0,6.0,2.0,-0.0,0.0,-0.0,0.0,-0.0,0.0,0.372,0.372,0.372,0.366,0.366,0.366,2004-08-06,2004-08-04,2004-07-26,2004-08-09,2004-08-05,2004-07-27,0.0,0.0,0.0,100.0,100.0,100.0,1999-01-01,1999-01-01,1999-01-01,1999-01-01,1999-01-01,1999-01-01,6400.0,44000.0,26200.0,-32.26,51.72,8.81,0.0,0.0,0.0,-0.011,100.0,100.0,0.0,0.0,0.0,-0.01352,100.0,100.0,0.0,0.0,0.0,100.0,100.0,100.0,100.0,100.0,49.505,0.0,0.0,0.0,45.122,0.0,0.0,45.043,100.0,100.0,1999-01-01,1999-01-01,1999-01-01,2004-06-03,1999-01-01,1999-01-01,0,0,0,1980,0,0,1999-01-01,1999-01-01,1999-01-01,1999-01-01,1999-01-01,1999-01-01,2004-08-06,2004-08-04,2004-07-26,2004-08-09,2004-08-05,2004-07-27,2004-07-16,1999-01-01,1999-01-01,2004-07-26,1999-01-01,1999-01-01,1,0,1,0,0,0,0,0,0,0,1,0,0,0,0,0,0,1,0,0,0,1,1,0,0,0,0,0,1,0,,,,,,,,n2p,,Life.Empty,Life.Empty,Life.BullRetrace,Life.Bear,Life.BearRecovery,,
2004-08-10,0.36845,,,,,0.37064,0.37666,0.39191,0.41075,-0.03409,-0.03377,-0.02127,-0.02171,-0.04011,-0.04025,-0.00648,0.01206,-0.01854,0.36948,0.37079,-0.0013,-0.00156,-0.00154,0.00026,,,-1.48,6.34,-4.92,5.45,-5.17,6.27,-3.08,2.91,10.0,15.0,39.0,19.0,17.0,14.0,27.0,16.0,0.0025,0.0,0.00125,-0.00125,1.0,50.0,46.63065,,,4.957,66.66667,55.55556,,,55.55556,51.85185,49.54544,49.60487,,,0.00489,0.00511,,,1,1,1,,,,,,,-0.15,,0.37,0.375,0.374,0.368,0.373,0.373,2004-08-05,2004-07-06,2004-06-18,2004-07-22,2004-06-28,2004-06-16,-0.42,0.54,-1.87,0.54,-0.27,0.27,3.0,10.0,12.0,4.0,6.0,2.0,-0.0,0.0,-0.0,0.0,-0.0,0.0,0.372,0.372,0.372,0.366,0.366,0.366,2004-08-06,2004-08-04,2004-07-26,2004-08-09,2004-08-05,2004-07-27,0.0,0.0,0.0,100.0,100.0,100.0,1999-01-01,1999-01-01,1999-01-01,1999-01-01,1999-01-01,1999-01-01,44000.0,26200.0,180000.0,51.72,8.81,226.63,0.0,0.0,0.0,-0.011,100.0,100.0,0.0,0.0,0.0,-0.01352,100.0,100.0,0.0,0.0,0.0,100.0,100.0,100.0,100.0,100.0,49.505,0.0,0.0,0.0,45.122,0.0,0.0,45.043,100.0,100.0,1999-01-01,1999-01-01,1999-01-01,2004-06-03,1999-01-01,1999-01-01,0,0,0,1980,0,0,1999-01-01,1999-01-01,1999-01-01,1999-01-01,1999-01-01,1999-01-01,2004-08-06,2004-08-04,2004-07-26,2004-08-09,2004-08-05,2004-07-27,2004-07-16,1999-01-01,1999-01-01,2004-07-26,1999-01-01,1999-01-01,1,0,1,0,0,0,0,0,0,0,1,0,0,0,0,0,0,1,0,0,0,1,1,0,0,0,0,0,1,0,,180000.0,,,,,n2p,,p2p,Life.Empty,Life.Empty,Life.BullRetrace,Life.Bear,Life.BearRecovery,,
2004-08-11,0.36788,,,,0.372,0.37071,0.37646,0.39151,0.41036,-0.0339,-0.03366,-0.0208,-0.02137,-0.03965,-0.03995,-0.00629,0.0123,-0.01859,0.36979,0.37084,-0.00105,-0.00146,-0.00143,0.00041,,,-1.33,6.34,-4.92,5.45,-5.17,6.27,-3.08,2.91,9.0,15.0,39.0,19.0,17.0,14.0,27.0,16.0,0.0025,0.0,0.00143,-0.00107,1.33333,57.14286,46.94549,,,12.09986,100.0,55.55556,,100.0,55.55556,48.14815,49.45262,49.53663,,,0.00489,0.0051,,,1,1,1,,,,,,,-0.15,,0.37,0.375,0.374,0.368,0.373,0.373,2004-08-05,2004-07-06,2004-06-18,2004-07-22,2004-06-28,2004-06-16,-0.57,0.54,-1.87,0.54,-0.27,0.27,4.0,10.0,12.0,4.0,6.0,2.0,-0.0,0.0,-0.0,0.0,-0.0,0.0,0.372,0.372,0.372,0.366,0.366,0.366,2004-08-11,2004-08-06,2004-08-04,2004-08-09,2004-08-05,2004-07-27,0.0,0.0,0.0,100.0,100.0,100.0,1999-01-01,1999-01-01,1999-01-01,1999-01-01,1999-01-01,1999-01-01,26200.0,180000.0,15000.0,8.81,226.63,-11.59,0.0,0.0,0.0,-0.011,100.0,100.0,0.0,0.0,0.0,-0.01352,100.0,100.0,0.0,0.0,0.0,100.0,100.0,100.0,100.0,100.0,100.0,0.0,0.0,0.0,45.122,0.0,0.0,45.043,100.0,100.0,1999-01-01,1999-01-01,1999-01-01,2004-06-03,1999-01-01,1999-01-01,0,0,0,1980,0,0,1999-01-01,1999-01-01,1999-01-01,1999-01-01,1999-01-01,1999-01-01,2004-08-11,2004-08-06,2004-08-04,2004-08-09,2004-08-05,2004-07-27,2004-07-16,1999-01-01,1999-01-01,2004-07-26,1999-01-01,1999-01-01,1,0,1,0,0,0,0,0,0,0,1,0,0,0,0,0,0,0,0,0,0,1,1,0,0,0,0,0,1,0,,,15000.0,,,n2p,,p2p,p2n,Life.Empty,Life.Empty,Life.BullRetrace,Life.Bear,Life.BearRecovery,,
2004-08-12,0.36723,,,,,0.37038,0.37607,0.39101,0.40993,-0.03386,-0.03354,-0.02063,-0.02102,-0.03954,-0.03964,-0.0061,0.01252,-0.01862,0.36929,0.37052,-0.00123,-0.00141,-0.00131,0.00018,,,-1.15,6.34,-4.92,5.45,-5.17,6.27,-3.08,2.91,8.0,15.0,39.0,19.0,17.0,14.0,27.0,16.0,-0.0,-0.005,0.00143,-0.00143,1.0,50.0,47.28183,,,4.957,33.33333,66.66667,,,66.66667,59.25926,49.33097,49.44301,,,0.0049,0.00509,,,1,1,1,,,,,,,-0.15,,0.37,0.375,0.374,0.368,0.373,0.373,2004-08-05,2004-07-06,2004-06-18,2004-07-22,2004-06-28,2004-06-16,-0.75,0.54,-1.87,0.54,-0.27,0.27,5.0,10.0,12.0,4.0,6.0,2.0,-0.0,0.0,-0.0,0.0,-0.0,0.0,0.372,0.372,0.372,0.366,0.366,0.366,2004-08-11,2004-08-06,2004-08-04,2004-08-09,2004-08-05,2004-07-27,0.0,0.0,0.0,100.0,100.0,100.0,1999-01-01,1999-01-01,1999-01-01,1999-01-01,1999-01-01,1999-01-01,180000.0,15000.0,17300.0,226.63,-11.59,-4.02,0.0,0.0,0.0,-0.011,100.0,100.0,0.0,0.0,0.0,-0.01352,100.0,100.0,0.0,0.0,0.0,100.0,100.0,100.0,100.0,100.0,100.0,0.0,0.0,0.0,45.122,0.0,0.0,45.043,100.0,100.0,1999-01-01,1999-01-01,1999-01-01,2004-06-03,1999-01-01,1999-01-01,0,0,0,1980,0,0,1999-01-01,1999-01-01,1999-01-01,1999-01-01,1999-01-01,1999-01-01,2004-08-11,2004-08-06,2004-08-04,2004-08-09,2004-08-05,2004-07-27,2004-07-16,1999-01-01,1999-01-01,2004-07-26,1999-01-01,1999-01-01,1,0,1,0,0,0,0,0,0,0,1,0,0,0,0,0,0,0,0,0,0,1,1,0,0,0,0,0,1,0,,,,,n2p,,p2p,p2n,,Life.Empty,Life.Empty,Life.BullRetrace,Life.Bear,Life.BearRecovery,,
2004-08-13,0.36648,,,,,0.37009,0.37569,0.39052,0.40949,-0.0338,-0.03341,-0.02044,-0.02066,-0.03941,-0.03931,-0.0059,0.01275,-0.01865,0.36886,0.37022,-0.00136,-0.0014,-0.00118,4e-05,,,-0.95,6.34,-4.92,5.45,-5.17,6.27,-3.08,2.91,7.0,15.0,39.0,19.0,17.0,14.0,27.0,16.0,0.0,0.0,0.00107,-0.00143,0.75,42.85714,47.63688,,,-2.18586,33.33333,55.55556,,,55.55556,59.25926,49.18137,49.32165,,,0.00473,0.0051,,,1,1,1,,,,,,,-0.15,,0.37,0.375,0.374,0.368,0.373,0.373,2004-08-05,2004-07-06,2004-06-18,2004-07-22,2004-06-28,2004-06-16,-0.95,0.54,-1.87,0.54,-0.27,0.27,6.0,10.0,12.0,4.0,6.0,2.0,-0.0,0.0,-0.0,0.0,-0.0,0.0,0.372,0.372,0.372,0.366,0.366,0.366,2004-08-11,2004-08-06,2004-08-04,2004-08-09,2004-08-05,2004-07-27,0.0,0.0,0.0,100.0,100.0,100.0,1999-01-01,1999-01-01,1999-01-01,1999-01-01,1999-01-01,1999-01-01,15000.0,17300.0,54500.0,-11.59,-4.02,-59.11,0.0,0.0,0.0,-0.011,100.0,100.0,0.0,0.0,0.0,-0.01352,100.0,100.0,0.0,0.0,0.0,100.0,100.0,100.0,100.0,100.0,100.0,0.0,0.0,0.0,45.122,0.0,0.0,45.043,100.0,100.0,1999-01-01,1999-01-01,1999-01-01,2004-06-03,1999-01-01,1999-01-01,0,0,0,1980,0,0,1999-01-01,1999-01-01,1999-01-01,1999-01-01,1999-01-01,1999-01-01,2004-08-11,2004-08-06,2004-08-04,2004-08-09,2004-08-05,2004-07-27,2004-07-16,1999-01-01,1999-01-01,2004-07-26,1999-01-01,1999-01-01,1,0,1,0,0,0,0,0,0,0,1,0,0,0,0,0,0,0,0,0,0,1,1,0,0,0,0,0,1,0,,,,54500.0,,p2p,p2n,,n2n,Life.Empty,Life.Empty,Life.BullRetrace,Life.Bear,Life.BearRecovery,,
2004-08-16,0.36567,,,,,0.36981,0.37533,0.39005,0.40907,-0.03373,-0.03326,-0.02024,-0.0203,-0.03926,-0.03897,-0.00571,0.01297,-0.01867,0.3685,0.36995,-0.00145,-0.00141,-0.00106,-4e-05,,,-0.73,6.34,-4.92,5.45,-5.17,6.27,-3.08,2.91,6.0,15.0,39.0,19.0,17.0,14.0,27.0,16.0,0.0,0.0,0.00107,-0.00107,1.0,50.0,48.00743,,,4.957,33.33333,33.33333,,,33.33333,51.85185,49.00544,49.17259,,,0.00457,0.00511,,,1,1,1,,,,,,,-0.15,,0.37,0.375,0.374,0.368,0.373,0.373,2004-08-05,2004-07-06,2004-06-18,2004-07-22,2004-06-28,2004-06-16,-1.17,0.54,-1.87,0.54,-0.27,0.27,7.0,10.0,12.0,4.0,6.0,2.0,-0.0,0.0,-0.0,0.0,-0.0,0.0,0.372,0.372,0.372,0.366,0.366,0.366,2004-08-11,2004-08-06,2004-08-04,2004-08-09,2004-08-05,2004-07-27,0.0,0.0,0.0,100.0,100.0,100.0,1999-01-01,1999-01-01,1999-01-01,1999-01-01,1999-01-01,1999-01-01,17300.0,54500.0,59000.0,-4.02,-59.11,50.69,0.0,0.0,0.0,-0.011,100.0,100.0,0.0,0.0,0.0,-0.01352,100.0,100.0,0.0,0.0,0.0,100.0,100.0,100.0,100.0,100.0,100.0,0.0,0.0,0.0,45.122,0.0,0.0,45.043,100.0,100.0,1999-01-01,1999-01-01,1999-01-01,2004-06-03,1999-01-01,1999-01-01,0,0,0,1980,0,0,1999-01-01,1999-01-01,1999-01-01,1999-01-01,1999-01-01,1999-01-01,2004-08-11,2004-08-06,2004-08-04,2004-08-09,2004-08-05,2004-07-27,2004-07-16,1999-01-01,1999-01-01,2004-07-26,1999-01-01,1999-01-01,1,0,1,0,0,0,0,0,0,0,1,0,0,0,0,0,0,0,0,0,0,1,1,0,0,0,0,0,1,0,59000.0,,,,p2p,p2n,,n2n,n2p,Life.Empty,Life.Empty,Life.BullRetrace,Life.Bear,Life.BearRecovery,,
2004-08-17,0.36483,,,0.364,,0.36936,0.37489,0.38953,0.40862,-0.03373,-0.0331,-0.02017,-0.01993,-0.03925,-0.03862,-0.00551,0.01318,-0.01869,0.3678,0.36951,-0.0017,-0.00147,-0.00092,-0.00023,,,-0.5,6.34,-4.92,5.45,-5.17,6.27,-3.08,2.91,5.0,15.0,39.0,19.0,17.0,14.0,27.0,16.0,-0.0,-0.0025,0.00089,-0.00125,0.71429,41.66667,48.38908,,,-3.37633,0.0,22.22222,0.0,,22.22222,37.03704,48.803,48.9966,,,0.00442,0.00513,,,1,1,1,,,,,,,-0.15,,0.37,0.375,0.374,0.368,0.373,0.373,2004-08-05,2004-07-06,2004-06-18,2004-07-22,2004-06-28,2004-06-16,-1.4,0.54,-1.87,0.54,-0.27,0.27,8.0,10.0,12.0,4.0,6.0,2.0,-0.0,0.0,-0.0,0.0,-0.0,0.0,0.372,0.372,0.372,0.364,0.366,0.366,2004-08-11,2004-08-06,2004-08-04,2004-08-17,2004-08-09,2004-08-05,0.0,0.0,0.0,100.0,100.0,100.0,1999-01-01,1999-01-01,1999-01-01,1999-01-01,1999-01-01,1999-01-01,54500.0,59000.0,18000.0,-59.11,50.69,0.54,0.0,0.0,0.0,-0.011,100.0,100.0,0.0,0.0,0.0,-0.01352,100.0,100.0,0.0,0.0,0.0,100.0,100.0,100.0,100.0,100.0,100.0,0.0,0.0,0.0,45.122,0.0,0.0,45.043,100.0,100.0,1999-01-01,1999-01-01,1999-01-01,2004-06-03,1999-01-01,1999-01-01,0,0,0,1980,0,0,1999-01-01,1999-01-01,1999-01-01,1999-01-01,1999-01-01,1999-01-01,2004-08-11,2004-08-06,2004-08-04,2004-08-17,2004-08-09,2004-08-05,2004-07-16,1999-01-01,1999-01-01,2004-07-26,1999-01-01,1999-01-01,1,0,1,0,0,0,1,0,0,0,1,0,0,0,0,0,0,0,0,0,0,1,1,0,0,0,0,0,1,0,,,,,p2n,,n2n,n2p,,Life.Empty,Life.Empty,Life.BullRetrace,Life.Bear,Life.BearRecovery,,
2004-08-18,0.36404,,,,0.366,0.36914,0.37456,0.38908,0.4082,-0.03364,-0.03293,-0.01993,-0.01955,-0.03906,-0.03825,-0.00532,0.01338,-0.0187,0.3676,0.36928,-0.00168,-0.00151,-0.00079,-0.00017,,,-0.29,6.34,-4.92,5.45,-5.17,6.27,-3.08,2.91,4.0,15.0,39.0,19.0,17.0,14.0,27.0,16.0,0.0025,0.0,0.00089,-0.00125,0.71429,41.66667,48.7764,,,-3.37633,50.0,27.77778,,50.0,44.44444,33.33333,48.57091,48.79311,,,0.00446,0.00516,,,1,1,1,,,,,,,-0.15,,0.37,0.375,0.374,0.368,0.373,0.373,2004-08-05,2004-07-06,2004-06-18,2004-07-22,2004-06-28,2004-06-16,-1.61,0.54,-1.87,0.54,-0.27,0.27,9.0,10.0,12.0,4.0,6.0,2.0,-0.0,0.0,-0.0,0.0,-0.0,0.0,0.366,0.372,0.372,0.364,0.366,0.366,2004-08-18,2004-08-11,2004-08-06,2004-08-17,2004-08-09,2004-08-05,0.0,0.0,0.0,100.0,100.0,100.0,1999-01-01,1999-01-01,1999-01-01,1999-01-01,1999-01-01,1999-01-01,59000.0,18000.0,22000.0,50.69,0.54,-24.71,0.0,0.0,0.0,-0.011,100.0,100.0,0.0,0.0,0.0,-0.01352,100.0,100.0,0.0,0.0,0.0,100.0,100.0,100.0,50.0,100.0,100.0,0.0,0.0,0.0,45.122,0.0,0.0,45.043,100.0,100.0,1999-01-01,1999-01-01,1999-01-01,2004-06-03,1999-01-01,1999-01-01,0,0,0,1980,0,0,1999-01-01,1999-01-01,1999-01-01,1999-01-01,1999-01-01,1999-01-01,2004-08-18,2004-08-11,2004-08-06,2004-08-17,2004-08-09,2004-08-05,2004-07-16,1999-01-01,1999-01-01,2004-07-26,1999-01-01,1999-01-01,1,0,1,0,1,0,1,0,0,0,1,0,0,0,0,0,1,0,0,0,0,1,1,0,0,0,0,0,1,0,,,,,,n2n,n2p,,,Life.Empty,Life.Empty,Life.BullRetrace,Life.Bear,Life.BearRecovery,,
2004-08-19,0.36338,,,,,0.36856,0.37405,0.38853,0.40773,-0.03369,-0.03275,-0.01998,-0.01916,-0.03918,-0.03787,-0.00512,0.01358,-0.0187,0.36666,0.36871,-0.00204,-0.00162,-0.00065,-0.00042,,,-0.1,6.34,-4.92,5.45,-5.17,6.27,-3.08,2.91,3.0,15.0,39.0,19.0,17.0,14.0,27.0,16.0,-0.0,-0.005,0.00089,-0.00161,0.55556,35.71429,49.16374,,,-9.32871,0.0,16.66667,,,33.33333,33.33333,48.30349,48.55913,,,0.0045,0.0052,,,1,1,1,,,,,,,-0.15,,0.37,0.375,0.374,0.368,0.373,0.373,2004-08-05,2004-07-06,2004-06-18,2004-07-22,2004-06-28,2004-06-16,-1.79,0.54,-1.87,0.54,-0.27,0.27,10.0,10.0,12.0,4.0,6.0,2.0,-0.0,0.0,-0.0,0.0,-0.0,0.0,0.366,0.372,0.372,0.364,0.366,0.366,2004-08-18,2004-08-11,2004-08-06,2004-08-17,2004-08-09,2004-08-05,0.0,0.0,0.0,100.0,100.0,100.0,1999-01-01,1999-01-01,1999-01-01,1999-01-01,1999-01-01,1999-01-01,18000.0,22000.0,35000.0,0.54,-24.71,-24.24,0.0,0.0,0.0,-0.011,100.0,100.0,0.0,0.0,0.0,-0.01352,100.0,100.0,0.0,0.0,0.0,100.0,100.0,100.0,50.0,100.0,100.0,0.0,0.0,0.0,45.122,0.0,0.0,45.043,100.0,100.0,1999-01-01,1999-01-01,1999-01-01,2004-06-03,1999-01-01,1999-01-01,0,0,0,1980,0,0,1999-01-01,1999-01-01,1999-01-01,1999-01-01,1999-01-01,1999-01-01,2004-08-18,2004-08-11,2004-08-06,2004-08-17,2004-08-09,2004-08-05,2004-07-16,1999-01-01,1999-01-01,2004-07-26,1999-01-01,1999-01-01,1,0,1,0,1,0,1,0,0,0,1,0,0,0,0,0,1,0,0,0,0,1,1,0,0,0,0,0,1,0,,,,,n2n,n2p,,,,Life.Empty,Life.Empty,Life.BullRetrace,Life.Bear,Life.BearRecovery,,
2004-08-20,0.36292,,,0.359,,0.36782,0.37346,0.38795,0.40725,-0.03379,-0.03255,-0.02013,-0.01877,-0.03943,-0.03747,-0.00492,0.01378,-0.0187,0.36549,0.36799,-0.0025,-0.00179,-0.00051,-0.00071,,,0.02,6.34,-4.92,5.45,-5.17,6.27,-3.08,2.91,2.0,15.0,39.0,19.0,17.0,14.0,27.0,16.0,-0.0,-0.0025,0.00089,-0.00179,0.5,33.33333,49.54549,,,-11.70967,0.0,16.66667,0.0,,33.33333,37.03704,47.99508,48.28983,,,0.00436,0.00524,,,1,1,1,,,,,,,-0.15,,0.37,0.375,0.374,0.368,0.373,0.373,2004-08-05,2004-07-06,2004-06-18,2004-07-22,2004-06-28,2004-06-16,-1.91,0.54,-1.87,0.54,-0.27,0.27,11.0,10.0,12.0,4.0,6.0,2.0,-0.0,0.0,-0.0,0.0,-0.0,0.0,0.366,0.372,0.372,0.359,0.364,0.366,2004-08-18,2004-08-11,2004-08-06,2004-08-20,2004-08-17,2004-08-09,0.0,0.0,0.0,100.0,100.0,100.0,1999-01-01,1999-01-01,1999-01-01,1999-01-01,1999-01-01,1999-01-01,22000.0,35000.0,59500.0,-24.71,-24.24,55.33,0.0,0.0,0.0,-0.011,100.0,100.0,0.0,0.0,0.0,-0.01352,100.0,100.0,0.0,0.0,0.0,100.0,100.0,100.0,50.0,100.0,100.0,0.0,0.0,0.0,45.122,0.0,0.0,45.043,100.0,100.0,1999-01-01,1999-01-01,1999-01-01,2004-06-03,1999-01-01,1999-01-01,0,0,0,1980,0,0,1999-01-01,1999-01-01,1999-01-01,1999-01-01,1999-01-01,1999-01-01,2004-08-18,2004-08-11,2004-08-06,2004-08-20,2004-08-17,2004-08-09,2004-07-16,1999-01-01,1999-01-01,2004-07-26,1999-01-01,1999-01-01,1,0,1,0,1,0,1,0,0,0,1,0,0,0,0,0,1,0,0,0,0,1,1,0,0,0,0,0,1,0,-59500.0,,,,n2p,,,,n2p,Life.Empty,Life.Empty,Life.BullRetrace,Life.Bear,Life.BearRecovery,,
2004-08-23,0.36277,,,,,0.36733,0.37299,0.38742,0.40679,-0.03381,-0.03234,-0.02009,-0.01838,-0.03946,-0.03706,-0.00472,0.01396,-0.01869,0.36487,0.36751,-0.00263,-0.00196,-0.00037,-0.00067,,,0.06,6.34,-4.92,5.45,-5.17,6.27,-3.08,2.91,1.0,15.0,39.0,19.0,17.0,14.0,27.0,16.0,0.0025,0.0,0.00107,-0.00179,0.6,37.5,49.91607,,,-7.543,20.0,6.66667,,,11.11111,25.92593,47.64179,47.98012,,,0.00423,0.0053,,,1,1,1,,,,,,,-0.15,,0.37,0.375,0.374,0.368,0.373,0.373,2004-08-05,2004-07-06,2004-06-18,2004-07-22,2004-06-28,2004-06-16,-1.95,0.54,-1.87,0.54,-0.27,0.27,12.0,10.0,12.0,4.0,6.0,2.0,-0.0,0.0,-0.0,0.0,-0.0,0.0,0.366,0.372,0.372,0.359,0.364,0.366,2004-08-18,2004-08-11,2004-08-06,2004-08-20,2004-08-17,2004-08-09,0.0,0.0,0.0,100.0,100.0,100.0,1999-01-01,1999-01-01,1999-01-01,1999-01-01,1999-01-01,1999-01-01,35000.0,59500.0,34000.0,-24.24,55.33,10.3,0.0,0.0,0.0,-0.011,100.0,100.0,0.0,0.0,0.0,-0.01352,100.0,100.0,0.0,0.0,0.0,100.0,100.0,100.0,50.0,100.0,100.0,0.0,0.0,0.0,45.122,0.0,0.0,45.043,100.0,100.0,1999-01-01,1999-01-01,1999-01-01,2004-06-03,1999-01-01,1999-01-01,0,0,0,1980,0,0,1999-01-01,1999-01-01,1999-01-01,1999-01-01,1999-01-01,1999-01-01,2004-08-18,2004-08-11,2004-08-06,2004-08-20,2004-08-17,2004-08-09,2004-07-16,1999-01-01,1999-01-01,2004-07-26,1999-01-01,1999-01-01,1,0,1,0,1,0,1,0,0,0,1,0,0,0,0,0,1,0,0,0,0,1,1,0,0,0,0,0,1,0,,,,,,,,n2p,,Life.Empty,Life.Empty,Life.BullRetrace,Life.Bear,Life.BearRecovery,,
2004-08-24,0.36311,0.363,,,,0.36689,0.37254,0.38691,0.40634,-0.03381,-0.03212,-0.02002,-0.01797,-0.03946,-0.03664,-0.00452,0.01415,-0.01867,0.36435,0.36706,-0.00271,-0.00211,-0.00023,-0.0006,,,6.31,-4.92,5.45,-5.17,6.27,-3.08,2.91,-0.26,15.0,39.0,19.0,17.0,14.0,27.0,16.0,1.0,0.0,0.0,0.00107,-0.00179,0.6,37.5,50.26965,,,-7.543,20.0,13.33333,,,22.22222,22.22222,47.24046,47.62578,,,0.0041,0.00535,,,1,1,1,,,,,,,-0.15,,0.37,0.375,0.374,0.363,0.368,0.373,2004-08-05,2004-07-06,2004-06-18,2004-08-24,2004-07-22,2004-06-28,0.0,-1.89,0.54,-1.87,0.54,-0.27,0.0,13.0,10.0,12.0,4.0,6.0,0.0,-0.0,0.0,-0.0,0.0,-0.0,0.366,0.372,0.372,0.359,0.364,0.366,2004-08-18,2004-08-11,2004-08-06,2004-08-20,2004-08-17,2004-08-09,0.0,0.0,0.0,100.0,100.0,100.0,1999-01-01,1999-01-01,1999-01-01,1999-01-01,1999-01-01,1999-01-01,59500.0,34000.0,140000.0,55.33,10.3,81.71,0.0,0.0,0.0,-0.011,100.0,100.0,0.0,0.0,0.0,-0.01352,100.0,100.0,0.0,0.0,0.0,100.0,100.0,100.0,50.0,100.0,100.0,0.0,0.0,0.0,45.122,0.0,0.0,45.043,100.0,100.0,1999-01-01,1999-01-01,1999-01-01,2004-06-03,1999-01-01,1999-01-01,0,0,0,1980,0,0,1999-01-01,1999-01-01,1999-01-01,1999-01-01,1999-01-01,1999-01-01,2004-08-18,2004-08-11,2004-08-06,2004-08-20,2004-08-17,2004-08-09,2004-07-16,1999-01-01,1999-01-01,2004-07-26,1999-01-01,1999-01-01,1,0,1,0,1,0,1,0,0,0,1,0,0,0,0,0,1,0,0,0,0,1,1,0,0,0,0,0,1,0,,140000.0,,,,,n2p,,p2p,Life.Empty,Life.Empty,Life.BullRetrace,Life.Bear,Life.BearRecovery,,
2004-08-25,0.36403,,,,,0.36647,0.37211,0.38641,0.4059,-0.03379,-0.03188,-0.01994,-0.01756,-0.03943,-0.03621,-0.00432,0.01432,-0.01864,0.36391,0.36665,-0.00274,-0.00224,-9e-05,-0.0005,,,6.04,-4.92,5.45,-5.17,6.27,-3.08,2.91,-0.26,14.0,39.0,19.0,17.0,14.0,27.0,16.0,1.0,0.0,0.0,0.00107,-0.00143,0.75,42.85714,50.60125,,,-2.18586,20.0,20.0,,,38.88889,24.07407,46.78808,47.22344,,,0.00381,0.00542,,,1,1,1,,,,,,,-0.15,,0.37,0.375,0.374,0.363,0.368,0.373,2004-08-05,2004-07-06,2004-06-18,2004-08-24,2004-07-22,2004-06-28,0.28,-1.89,0.54,-1.87,0.54,-0.27,1.0,13.0,10.0,12.0,4.0,6.0,0.0,-0.0,0.0,-0.0,0.0,-0.0,0.366,0.372,0.372,0.359,0.364,0.366,2004-08-18,2004-08-11,2004-08-06,2004-08-20,2004-08-17,2004-08-09,0.0,0.0,0.0,100.0,100.0,100.0,1999-01-01,1999-01-01,1999-01-01,1999-01-01,1999-01-01,1999-01-01,34000.0,140000.0,77000.0,10.3,81.71,7.49,0.0,0.0,0.0,-0.011,100.0,100.0,0.0,0.0,0.0,-0.01352,100.0,100.0,0.0,0.0,0.0,100.0,100.0,100.0,50.0,100.0,100.0,0.0,0.0,0.0,45.122,0.0,0.0,45.043,100.0,100.0,1999-01-01,1999-01-01,1999-01-01,2004-06-03,1999-01-01,1999-01-01,0,0,0,1980,0,0,1999-01-01,1999-01-01,1999-01-01,1999-01-01,1999-01-01,1999-01-01,2004-08-18,2004-08-11,2004-08-06,2004-08-20,2004-08-17,2004-08-09,2004-07-16,1999-01-01,1999-01-01,2004-07-26,1999-01-01,1999-01-01,1,0,1,0,1,0,1,0,0,0,1,0,0,0,0,0,1,0,0,0,0,1,1,0,0,0,0,0,1,0,,,,,,n2p,,p2p,,Life.Empty,Life.Empty,Life.BullRetrace,Life.Bear,Life.BearRecovery,,
